sample15u_at_750.00nm_cut_at_1060.50Y_01.dat
19.06.2023
11:22:37
cut middle at Y: 1060.50
top cursor: 1109 down cursor: 1012 mean of: 97 lines , 2560 datapoints
wavelength(nm)	intensity[arb. units]
585.996	1840.515
586.124	1801.598
586.252	1780.691
586.380	1771.340
586.508	1784.691
586.637	1794.794
586.765	1796.062
586.893	1796.052
587.021	1809.495
587.149	1799.608
587.277	1796.629
587.405	1806.381
587.533	1791.515
587.662	1807.093
587.790	1800.320
587.918	1790.567
588.046	1802.866
588.174	1804.309
588.302	1811.216
588.430	1814.835
588.558	1810.804
588.687	1814.845
588.815	1820.402
588.943	1837.742
589.071	1819.093
589.199	1838.887
589.327	1832.474
589.455	1818.680
589.583	1836.825
589.712	1828.237
589.840	1831.021
589.968	1841.629
590.096	1841.052
590.224	1844.371
590.352	1841.670
590.480	1835.010
590.608	1834.103
590.737	1835.155
590.865	1843.928
590.993	1839.124
591.121	1832.237
591.249	1840.443
591.377	1841.876
591.505	1852.660
591.633	1843.340
591.762	1855.536
591.890	1858.732
592.018	1846.495
592.146	1862.093
592.274	1865.557
592.402	1858.144
592.530	1840.485
592.658	1856.423
592.787	1866.093
592.915	1854.258
593.043	1865.907
593.171	1861.340
593.299	1866.062
593.427	1870.959
593.555	1871.928
593.683	1872.103
593.812	1873.639
593.940	1885.103
594.068	1882.289
594.196	1893.887
594.324	1888.402
594.452	1907.165
594.580	1916.464
594.708	1908.340
594.837	1910.113
594.965	1936.155
595.093	1918.000
595.221	1921.289
595.349	1929.433
595.477	1920.258
595.605	1937.969
595.733	1962.876
595.862	1955.938
595.990	1955.742
596.118	1948.082
596.246	1960.763
596.374	1952.021
596.502	1968.443
596.630	1962.608
596.758	1961.330
596.887	1976.485
597.015	1996.433
597.143	1951.577
597.271	1971.649
597.399	1977.072
597.527	1993.907
597.655	1972.134
597.783	1975.990
597.912	1964.526
598.040	1975.186
598.168	1965.804
598.296	1969.320
598.424	1975.072
598.552	1972.165
598.680	1955.660
598.808	1982.320
598.937	1988.546
599.065	1969.907
599.193	1976.505
599.321	1954.485
599.449	1966.845
599.577	1964.887
599.705	1969.165
599.833	1975.402
599.962	1968.474
600.090	1973.670
600.218	1963.206
600.346	1975.237
600.474	1964.144
600.602	1972.753
600.730	1979.557
600.858	1974.722
600.987	1986.567
601.115	1972.619
601.243	1964.412
601.371	1978.845
601.499	1996.155
601.627	1976.093
601.755	1999.526
601.883	1998.052
602.012	2013.299
602.140	2004.113
602.268	2018.464
602.396	2001.897
602.524	2008.082
602.652	2029.938
602.780	2031.660
602.908	2050.227
603.037	2042.546
603.165	2051.062
603.293	2062.258
603.421	2059.845
603.549	2061.907
603.677	2063.629
603.805	2061.309
603.933	2099.856
604.062	2079.485
604.190	2098.381
604.318	2093.144
604.446	2109.309
604.574	2108.557
604.702	2110.072
604.830	2104.474
604.958	2124.866
605.087	2149.474
605.215	2142.072
605.343	2147.103
605.471	2159.598
605.599	2167.351
605.727	2158.330
605.855	2166.485
605.983	2153.258
606.112	2179.381
606.240	2177.216
606.368	2193.412
606.496	2193.608
606.624	2182.227
606.752	2170.742
606.880	2192.072
607.008	2204.371
607.137	2209.093
607.265	2197.361
607.393	2207.722
607.521	2191.639
607.649	2188.031
607.777	2188.794
607.905	2214.680
608.033	2223.732
608.162	2196.608
608.290	2209.485
608.418	2213.567
608.546	2206.412
608.674	2221.928
608.802	2205.660
608.930	2221.804
609.058	2196.928
609.187	2206.773
609.315	2187.619
609.443	2209.216
609.571	2194.773
609.699	2204.134
609.827	2185.979
609.955	2194.320
610.083	2196.918
610.212	2195.649
610.340	2199.237
610.468	2201.186
610.596	2205.567
610.724	2200.443
610.852	2201.134
610.980	2190.381
611.108	2217.732
611.237	2207.052
611.365	2199.598
611.493	2213.948
611.621	2191.082
611.749	2207.443
611.877	2218.165
612.005	2222.876
612.133	2204.732
612.262	2214.907
612.390	2230.742
612.518	2235.206
612.646	2228.258
612.774	2236.680
612.902	2241.093
613.030	2241.732
613.158	2254.237
613.287	2254.124
613.415	2265.959
613.543	2258.443
613.671	2269.000
613.799	2266.784
613.927	2275.608
614.055	2288.938
614.183	2303.412
614.312	2291.113
614.440	2291.196
614.568	2284.515
614.696	2308.052
614.824	2312.825
614.952	2311.608
615.080	2312.526
615.208	2323.124
615.337	2332.206
615.465	2324.505
615.593	2343.588
615.721	2349.598
615.849	2346.340
615.977	2348.443
616.105	2354.773
616.233	2342.546
616.362	2354.608
616.490	2337.649
616.618	2346.330
616.746	2340.557
616.874	2385.041
617.002	2370.093
617.130	2385.619
617.258	2383.763
617.387	2355.804
617.515	2364.062
617.643	2371.289
617.771	2391.897
617.899	2376.072
618.027	2359.072
618.155	2377.670
618.283	2369.309
618.412	2377.062
618.540	2395.041
618.668	2363.536
618.796	2373.113
618.924	2414.216
619.052	2390.258
619.180	2384.103
619.308	2386.371
619.437	2382.320
619.565	2390.505
619.693	2384.814
619.821	2398.990
619.949	2383.897
620.077	2400.505
620.205	2414.918
620.333	2407.918
620.462	2413.237
620.590	2423.021
620.718	2409.804
620.846	2411.732
620.974	2423.907
621.102	2424.835
621.230	2409.670
621.358	2428.608
621.487	2396.423
621.615	2399.639
621.743	2402.969
621.871	2420.670
621.999	2414.505
622.127	2410.567
622.255	2412.062
622.383	2417.742
622.512	2403.825
622.640	2425.907
622.768	2402.804
622.896	2392.268
623.024	2399.278
623.152	2436.835
623.280	2406.330
623.408	2404.835
623.537	2429.289
623.665	2414.433
623.793	2438.969
623.921	2395.928
624.049	2409.093
624.177	2401.216
624.305	2402.938
624.433	2429.649
624.562	2402.711
624.690	2408.299
624.818	2414.918
624.946	2439.546
625.074	2421.196
625.202	2406.660
625.330	2397.464
625.458	2415.887
625.587	2416.495
625.715	2402.454
625.843	2423.186
625.971	2403.309
626.099	2406.258
626.227	2416.959
626.355	2407.454
626.483	2431.691
626.612	2398.928
626.740	2411.598
626.868	2433.763
626.996	2386.897
627.124	2402.330
627.252	2394.175
627.380	2415.443
627.508	2408.938
627.637	2401.320
627.765	2417.804
627.893	2422.464
628.021	2410.309
628.149	2424.515
628.277	2440.237
628.405	2450.299
628.533	2425.371
628.662	2423.216
628.790	2431.629
628.918	2414.948
629.046	2425.320
629.174	2432.165
629.302	2465.505
629.430	2437.464
629.558	2432.309
629.687	2456.340
629.815	2452.619
629.943	2442.206
630.071	2462.216
630.199	2459.485
630.327	2440.784
630.455	2439.969
630.583	2485.495
630.712	2482.402
630.840	2458.649
630.968	2474.959
631.096	2481.423
631.224	2452.196
631.352	2457.258
631.480	2466.206
631.608	2470.093
631.737	2497.526
631.865	2546.474
631.993	2487.093
632.121	2503.928
632.249	2522.340
632.377	2482.557
632.505	2493.433
632.633	2457.773
632.762	2503.412
632.890	2521.918
633.018	2483.691
633.146	2485.371
633.274	2493.062
633.402	2475.113
633.530	2461.082
633.658	2516.186
633.787	2464.608
633.915	2500.732
634.043	2464.567
634.171	2479.443
634.299	2488.835
634.427	2490.907
634.555	2489.103
634.683	2476.206
634.812	2458.588
634.940	2475.515
635.068	2459.454
635.196	2459.825
635.324	2466.381
635.452	2471.258
635.580	2435.052
635.708	2430.124
635.837	2468.082
635.965	2447.227
636.093	2448.845
636.221	2431.918
636.349	2454.196
636.477	2415.237
636.605	2455.351
636.733	2417.093
636.862	2403.722
636.990	2416.505
637.118	2424.134
637.246	2409.948
637.374	2402.289
637.502	2402.680
637.630	2408.948
637.758	2386.031
637.887	2385.948
638.015	2376.371
638.143	2398.990
638.271	2389.216
638.399	2392.938
638.527	2375.938
638.655	2386.351
638.783	2391.031
638.912	2383.567
639.040	2379.340
639.168	2356.010
639.296	2373.113
639.424	2397.825
639.552	2367.113
639.680	2368.866
639.808	2368.052
639.937	2348.763
640.065	2355.835
640.193	2374.691
640.321	2349.093
640.449	2375.732
640.577	2363.289
640.705	2341.474
640.833	2354.691
640.962	2360.536
641.090	2369.773
641.218	2345.959
641.346	2342.227
641.474	2347.907
641.602	2350.948
641.730	2363.845
641.858	2356.144
641.987	2365.907
642.115	2354.278
642.243	2355.361
642.371	2371.938
642.499	2346.722
642.627	2351.711
642.755	2348.608
642.883	2385.876
643.012	2362.247
643.140	2367.990
643.268	2350.320
643.396	2368.320
643.524	2368.330
643.652	2365.392
643.780	2350.887
643.908	2342.515
644.037	2350.041
644.165	2360.619
644.293	2363.330
644.421	2353.722
644.549	2374.526
644.677	2379.289
644.805	2362.577
644.933	2353.124
645.062	2351.289
645.190	2363.052
645.318	2355.918
645.446	2363.320
645.574	2371.660
645.702	2362.753
645.830	2390.711
645.958	2379.206
646.087	2358.361
646.215	2369.247
646.343	2379.794
646.471	2365.134
646.599	2350.206
646.727	2360.206
646.855	2357.000
646.983	2356.876
647.112	2357.979
647.240	2377.113
647.368	2339.505
647.496	2349.649
647.624	2336.340
647.752	2342.351
647.880	2335.227
648.008	2339.969
648.137	2321.474
648.265	2310.557
648.393	2335.918
648.521	2334.144
648.649	2325.402
648.777	2307.536
648.905	2314.093
649.033	2289.649
649.162	2306.206
649.290	2285.763
649.418	2287.649
649.546	2295.206
649.674	2305.000
649.802	2296.557
649.930	2288.093
650.058	2271.485
650.187	2285.433
650.315	2278.907
650.443	2264.340
650.571	2266.742
650.699	2266.000
650.827	2266.866
650.955	2272.041
651.083	2260.000
651.212	2257.052
651.340	2246.196
651.468	2265.505
651.596	2243.485
651.724	2241.155
651.852	2231.464
651.980	2238.938
652.108	2253.928
652.237	2218.887
652.365	2227.918
652.493	2242.309
652.621	2216.577
652.749	2220.474
652.877	2214.041
653.005	2226.495
653.133	2213.423
653.262	2219.474
653.390	2204.918
653.518	2203.186
653.646	2190.093
653.774	2199.804
653.902	2202.814
654.030	2185.691
654.158	2184.082
654.287	2189.175
654.415	2178.041
654.543	2171.680
654.671	2162.505
654.799	2150.928
654.927	2169.866
655.055	2158.165
655.183	2151.134
655.312	2166.526
655.440	2157.278
655.568	2136.361
655.696	2153.000
655.824	2144.619
655.952	2147.402
656.080	2136.928
656.208	2141.804
656.337	2120.371
656.465	2147.742
656.593	2126.825
656.721	2124.691
656.849	2130.402
656.977	2120.526
657.105	2115.258
657.233	2106.268
657.362	2097.742
657.490	2104.351
657.618	2104.979
657.746	2092.093
657.874	2089.423
658.002	2096.351
658.130	2080.371
658.258	2082.505
658.387	2087.371
658.515	2064.062
658.643	2071.567
658.771	2069.474
658.899	2072.216
659.027	2078.722
659.155	2059.196
659.283	2046.361
659.412	2035.165
659.540	2036.979
659.668	2040.443
659.796	2014.495
659.924	2039.608
660.052	2029.175
660.180	2014.021
660.308	2020.567
660.437	2015.546
660.565	2009.722
660.693	2013.773
660.821	1999.649
660.949	2012.031
661.077	1998.000
661.205	2000.763
661.333	1998.639
661.462	2013.412
661.590	2002.526
661.718	1983.845
661.846	1983.722
661.974	1982.722
662.102	1985.371
662.230	1977.340
662.358	1967.093
662.487	1967.495
662.615	1966.340
662.743	1953.938
662.871	1962.515
662.999	1968.186
663.127	1962.629
663.255	1956.639
663.383	1962.732
663.512	1961.515
663.640	1963.938
663.768	1951.546
663.896	1945.598
664.024	1940.412
664.152	1945.835
664.280	1947.918
664.408	1930.907
664.537	1935.505
664.665	1933.082
664.793	1913.577
664.921	1920.423
665.049	1925.938
665.177	1941.124
665.305	1921.536
665.433	1917.722
665.562	1914.608
665.690	1910.155
665.818	1913.887
665.946	1904.000
666.074	1908.309
666.202	1909.381
666.330	1892.918
666.458	1913.670
666.587	1902.330
666.715	1910.959
666.843	1907.763
666.971	1896.515
667.099	1901.753
667.227	1909.856
667.355	1896.351
667.483	1882.990
667.612	1884.433
667.740	1882.505
667.868	1893.629
667.996	1874.701
668.124	1882.557
668.252	1886.505
668.380	1862.093
668.508	1887.196
668.637	1869.742
668.765	1865.041
668.893	1877.175
669.021	1860.113
669.149	1847.309
669.277	1846.206
669.405	1850.928
669.533	1850.505
669.662	1849.763
669.790	1842.309
669.918	1837.237
670.046	1829.670
670.174	1830.557
670.302	1825.990
670.430	1811.113
670.558	1798.897
670.687	1807.969
670.815	1803.546
670.943	1796.144
671.071	1798.495
671.199	1798.567
671.327	1790.835
671.455	1794.464
671.583	1789.299
671.712	1786.227
671.840	1778.701
671.968	1765.443
672.096	1753.629
672.224	1752.361
672.352	1756.113
672.480	1758.680
672.608	1748.557
672.737	1749.876
672.865	1738.649
672.993	1740.268
673.121	1719.526
673.249	1717.082
673.377	1707.299
673.505	1709.990
673.633	1704.887
673.762	1694.742
673.890	1701.103
674.018	1686.289
674.146	1686.175
674.274	1691.289
674.402	1676.567
674.530	1664.361
674.658	1673.309
674.787	1657.732
674.915	1659.196
675.043	1654.206
675.171	1652.804
675.299	1636.289
675.427	1635.237
675.555	1643.464
675.683	1630.361
675.812	1623.608
675.940	1616.814
676.068	1621.680
676.196	1602.536
676.324	1605.454
676.452	1597.402
676.580	1589.247
676.708	1586.814
676.837	1608.392
676.965	1580.907
677.093	1587.299
677.221	1572.887
677.349	1569.649
677.477	1564.948
677.605	1552.794
677.733	1567.144
677.862	1551.165
677.990	1545.536
678.118	1542.258
678.246	1530.041
678.374	1520.598
678.502	1520.289
678.630	1525.072
678.758	1509.464
678.887	1514.979
679.015	1515.753
679.143	1514.124
679.271	1508.010
679.399	1508.320
679.527	1486.464
679.655	1492.052
679.783	1493.814
679.912	1482.031
680.040	1481.990
680.168	1476.062
680.296	1466.577
680.424	1466.753
680.552	1462.680
680.680	1465.959
680.808	1456.969
680.937	1456.897
681.065	1444.969
681.193	1448.412
681.321	1450.464
681.449	1442.897
681.577	1438.732
681.705	1418.515
681.833	1428.567
681.962	1428.722
682.090	1433.856
682.218	1418.227
682.346	1419.856
682.474	1412.474
682.602	1423.742
682.730	1409.062
682.858	1400.557
682.987	1406.701
683.115	1400.134
683.243	1403.567
683.371	1414.526
683.499	1389.216
683.627	1408.021
683.755	1390.474
683.883	1385.216
684.012	1385.526
684.140	1378.227
684.268	1378.608
684.396	1375.505
684.524	1375.289
684.652	1372.742
684.780	1379.701
684.908	1378.093
685.037	1363.732
685.165	1366.990
685.293	1368.340
685.421	1359.567
685.549	1354.959
685.677	1365.835
685.805	1345.990
685.933	1356.526
686.062	1344.907
686.190	1348.577
686.318	1354.773
686.446	1344.557
686.574	1339.598
686.702	1344.371
686.830	1346.165
686.958	1337.938
687.087	1345.062
687.215	1325.722
687.343	1323.371
687.471	1335.155
687.599	1311.031
687.727	1321.845
687.855	1320.381
687.983	1320.979
688.112	1310.938
688.240	1311.722
688.368	1313.309
688.496	1305.309
688.624	1304.320
688.752	1298.845
688.880	1297.433
689.008	1288.691
689.137	1293.113
689.265	1293.660
689.393	1272.041
689.521	1277.670
689.649	1279.062
689.777	1273.990
689.905	1271.804
690.033	1270.062
690.162	1258.608
690.290	1249.660
690.418	1240.278
690.546	1247.113
690.674	1264.124
690.802	1244.175
690.930	1237.010
691.058	1237.825
691.187	1227.392
691.315	1235.825
691.443	1224.371
691.571	1213.526
691.699	1217.887
691.827	1215.670
691.955	1206.918
692.083	1211.567
692.212	1195.320
692.340	1208.546
692.468	1196.742
692.596	1184.216
692.724	1186.835
692.852	1171.464
692.980	1171.732
693.108	1176.536
693.237	1170.381
693.365	1168.113
693.493	1161.031
693.621	1149.897
693.749	1152.691
693.877	1155.062
694.005	1148.784
694.133	1145.031
694.262	1142.031
694.390	1128.928
694.518	1120.814
694.646	1130.588
694.774	1122.680
694.902	1122.237
695.030	1135.711
695.158	1116.567
695.287	1114.443
695.415	1113.268
695.543	1106.876
695.671	1097.062
695.799	1110.794
695.927	1091.072
696.055	1094.598
696.183	1105.794
696.312	1092.876
696.440	1081.753
696.568	1075.866
696.696	1074.794
696.824	1068.887
696.952	1069.732
697.080	1068.309
697.208	1072.093
697.337	1066.608
697.465	1058.753
697.593	1056.454
697.721	1050.299
697.849	1053.959
697.977	1048.072
698.105	1048.536
698.233	1044.000
698.362	1034.423
698.490	1048.577
698.618	1031.268
698.746	1023.144
698.874	1028.309
699.002	1028.351
699.130	1026.557
699.258	1021.567
699.387	1005.670
699.515	1008.546
699.643	1013.876
699.771	1008.268
699.899	1005.505
700.027	1001.526
700.155	987.753
700.283	998.505
700.412	993.062
700.540	988.392
700.668	982.289
700.796	977.742
700.924	972.866
701.052	970.320
701.180	973.722
701.308	966.732
701.437	954.206
701.565	970.268
701.693	959.670
701.821	956.474
701.949	945.206
702.077	947.278
702.205	942.526
702.333	936.464
702.462	937.289
702.590	927.979
702.718	927.907
702.846	923.247
702.974	920.330
703.102	917.000
703.230	909.237
703.358	900.918
703.487	897.742
703.615	906.670
703.743	894.887
703.871	892.351
703.999	886.680
704.127	887.474
704.255	871.557
704.383	874.990
704.512	865.165
704.640	866.845
704.768	862.268
704.896	864.546
705.024	862.639
705.152	849.928
705.280	860.113
705.408	843.443
705.537	844.742
705.665	842.773
705.793	838.454
705.921	836.227
706.049	834.103
706.177	837.629
706.305	829.753
706.433	825.619
706.562	815.876
706.690	811.134
706.818	810.062
706.946	817.753
707.074	809.907
707.202	791.227
707.330	800.031
707.458	797.794
707.587	781.474
707.715	790.598
707.843	787.639
707.971	783.474
708.099	786.113
708.227	772.856
708.355	774.835
708.483	768.351
708.612	769.371
708.740	772.711
708.868	762.485
708.996	759.866
709.124	757.258
709.252	754.825
709.380	743.763
709.508	753.155
709.637	752.010
709.765	751.845
709.893	738.835
710.021	743.361
710.149	741.041
710.277	741.794
710.405	738.773
710.533	733.186
710.662	729.567
710.790	732.144
710.918	720.361
711.046	725.144
711.174	724.371
711.302	714.299
711.430	718.515
711.558	717.907
711.687	717.289
711.815	704.196
711.943	716.732
712.071	703.856
712.199	701.010
712.327	698.268
712.455	702.062
712.583	696.247
712.712	694.423
712.840	694.299
712.968	685.381
713.096	681.247
713.224	688.515
713.352	680.928
713.480	681.423
713.608	676.165
713.737	679.814
713.865	673.598
713.993	669.619
714.121	668.299
714.249	671.505
714.377	669.010
714.505	666.052
714.633	663.371
714.762	660.216
714.890	660.979
715.018	652.186
715.146	659.536
715.274	656.144
715.402	650.845
715.530	654.216
715.658	651.784
715.787	652.361
715.915	653.660
716.043	645.052
716.171	648.485
716.299	644.794
716.427	640.701
716.555	644.536
716.683	633.392
716.812	634.371
716.940	634.577
717.068	628.928
717.196	629.031
717.324	624.763
717.452	622.206
717.580	619.918
717.708	618.485
717.837	620.505
717.965	611.134
718.093	616.124
718.221	608.629
718.349	614.918
718.477	616.773
718.605	602.320
718.733	605.206
718.862	597.876
718.990	595.732
719.118	595.433
719.246	590.701
719.374	598.557
719.502	595.979
719.630	585.680
719.758	590.155
719.887	587.619
720.015	592.268
720.143	582.289
720.271	587.103
720.399	577.412
720.527	567.093
720.655	577.134
720.783	571.072
720.912	569.876
721.040	570.124
721.168	573.897
721.296	569.825
721.424	565.835
721.552	561.619
721.680	560.000
721.808	559.588
721.937	552.845
722.065	551.598
722.193	552.299
722.321	556.598
722.449	546.134
722.577	541.381
722.705	540.990
722.833	545.423
722.962	540.845
723.090	533.887
723.218	532.278
723.346	528.237
723.474	528.969
723.602	525.402
723.730	532.536
723.858	522.639
723.987	521.299
724.115	518.959
724.243	520.876
724.371	517.845
724.499	516.649
724.627	516.155
724.755	512.557
724.883	515.361
725.012	505.722
725.140	502.969
725.268	506.361
725.396	500.711
725.524	504.773
725.652	498.691
725.780	492.722
725.908	491.227
726.037	492.134
726.165	482.557
726.293	488.113
726.421	487.701
726.549	486.598
726.677	483.103
726.805	482.825
726.933	476.918
727.062	476.474
727.190	474.959
727.318	475.340
727.446	475.237
727.574	472.680
727.702	466.794
727.830	475.948
727.958	468.402
728.087	465.897
728.215	465.557
728.343	468.062
728.471	461.742
728.599	462.175
728.727	457.474
728.855	459.062
728.983	456.845
729.112	451.392
729.240	450.990
729.368	452.825
729.496	450.216
729.624	449.588
729.752	448.103
729.880	442.814
730.008	448.959
730.137	444.031
730.265	440.474
730.393	440.351
730.521	434.258
730.649	438.753
730.777	436.247
730.905	429.876
731.033	430.186
731.162	427.784
731.290	432.876
731.418	431.577
731.546	430.505
731.674	425.680
731.802	426.443
731.930	422.258
732.058	420.784
732.187	427.361
732.315	418.423
732.443	422.041
732.571	422.041
732.699	420.443
732.827	414.588
732.955	413.196
733.083	411.134
733.212	413.052
733.340	413.144
733.468	414.278
733.596	414.062
733.724	411.680
733.852	408.402
733.980	404.794
734.108	413.691
734.237	408.134
734.365	399.330
734.493	411.010
734.621	399.402
734.749	406.186
734.877	399.907
735.005	405.557
735.133	399.526
735.262	398.186
735.390	396.897
735.518	390.959
735.646	391.062
735.774	389.948
735.902	397.856
736.030	394.433
736.158	392.897
736.287	387.247
736.415	388.278
736.543	387.289
736.671	384.598
736.799	384.072
736.927	382.918
737.055	384.619
737.183	382.814
737.312	379.794
737.440	382.959
737.568	379.175
737.696	384.175
737.824	379.887
737.952	383.680
738.080	376.680
738.208	378.691
738.337	367.629
738.465	378.907
738.593	371.773
738.721	372.474
738.849	373.969
738.977	371.763
739.105	370.845
739.233	363.186
739.362	366.742
739.490	363.165
739.618	364.268
739.746	364.619
739.874	361.948
740.002	362.268
740.130	354.711
740.258	357.918
740.387	362.619
740.515	359.124
740.643	358.062
740.771	358.753
740.899	357.052
741.027	355.979
741.155	355.619
741.283	349.856
741.412	354.598
741.540	354.021
741.668	352.052
741.796	351.010
741.924	349.711
742.052	352.464
742.180	343.340
742.308	346.784
742.437	344.536
742.565	343.897
742.693	342.082
742.821	342.175
742.949	339.897
743.077	341.701
743.205	343.196
743.333	340.206
743.462	332.546
743.590	337.804
743.718	332.866
743.846	334.361
743.974	333.412
744.102	331.423
744.230	332.773
744.358	331.526
744.487	332.784
744.615	334.134
744.743	332.299
744.871	329.526
744.999	325.567
745.127	325.557
745.255	323.062
745.383	323.773
745.512	324.948
745.640	318.608
745.768	323.742
745.896	316.979
746.024	318.938
746.152	321.691
746.280	321.464
746.408	317.165
746.537	314.928
746.665	319.423
746.793	312.979
746.921	314.010
747.049	315.619
747.177	314.299
747.305	306.113
747.433	307.711
747.562	312.619
747.690	304.433
747.818	307.897
747.946	309.361
748.074	304.474
748.202	307.794
748.330	305.876
748.458	305.443
748.587	306.423
748.715	306.000
748.843	302.237
748.971	302.887
749.099	305.247
749.227	297.443
749.355	294.979
749.483	300.784
749.612	296.866
749.740	296.155
749.868	292.062
749.996	298.124
750.124	293.330
750.252	290.722
750.380	295.144
750.508	299.010
750.637	290.619
750.765	291.062
750.893	293.216
751.021	291.742
751.149	290.691
751.277	291.897
751.405	291.052
751.533	287.804
751.662	289.361
751.790	291.701
751.918	285.536
752.046	284.938
752.174	284.866
752.302	285.608
752.430	285.227
752.558	287.113
752.687	277.670
752.815	288.536
752.943	280.784
753.071	277.021
753.199	273.619
753.327	277.412
753.455	276.381
753.583	276.155
753.712	272.392
753.840	274.804
753.968	275.351
754.096	269.289
754.224	277.629
754.352	267.629
754.480	270.474
754.608	271.495
754.737	269.887
754.865	269.247
754.993	269.082
755.121	263.299
755.249	270.206
755.377	265.072
755.505	267.567
755.633	267.866
755.762	266.010
755.890	259.557
756.018	257.825
756.146	259.124
756.274	263.784
756.402	258.196
756.530	259.536
756.658	261.206
756.787	252.598
756.915	253.505
757.043	254.113
757.171	257.948
757.299	255.732
757.427	253.258
757.555	252.134
757.683	252.299
757.812	257.113
757.940	248.536
758.068	251.412
758.196	250.619
758.324	248.392
758.452	247.567
758.580	243.660
758.708	248.918
758.837	244.186
758.965	244.474
759.093	242.474
759.221	243.814
759.349	240.536
759.477	247.082
759.605	241.485
759.733	235.825
759.862	233.196
759.990	238.588
760.118	236.691
760.246	235.629
760.374	236.763
760.502	234.175
760.630	227.031
760.758	232.155
760.887	230.907
761.015	229.082
761.143	229.082
761.271	229.567
761.399	230.918
761.527	225.825
761.655	225.969
761.783	228.072
761.912	222.794
762.040	222.165
762.168	222.639
762.296	221.010
762.424	221.784
762.552	219.155
762.680	219.278
762.808	216.763
762.937	218.639
763.065	217.309
763.193	219.392
763.321	214.557
763.449	216.680
763.577	212.866
763.705	216.629
763.833	221.887
763.962	211.928
764.090	211.649
764.218	211.165
764.346	209.577
764.474	210.361
764.602	209.557
764.730	210.938
764.858	210.907
764.987	212.351
765.115	209.072
765.243	210.052
765.371	206.619
765.499	204.144
765.627	207.041
765.755	205.134
765.883	205.155
766.012	205.052
766.140	204.495
766.268	204.856
766.396	208.010
766.524	200.588
766.652	201.443
766.780	201.278
766.908	202.216
767.037	200.701
767.165	201.392
767.293	202.216
767.421	202.567
767.549	200.216
767.677	201.567
767.805	201.227
767.933	200.124
768.062	201.495
768.190	197.361
768.318	201.598
768.446	198.526
768.574	199.557
768.702	205.691
768.830	199.165
768.958	195.825
769.087	197.299
769.215	201.907
769.343	194.433
769.471	198.072
769.599	196.928
769.727	197.505
769.855	196.691
769.983	193.691
770.112	192.794
770.240	198.825
770.368	195.979
770.496	194.237
770.624	198.124
770.752	198.351
770.880	191.082
771.008	194.175
771.137	192.433
771.265	193.567
771.393	193.835
771.521	191.000
771.649	193.320
771.777	192.814
771.905	192.371
772.033	195.546
772.162	190.742
772.290	189.959
772.418	190.680
772.546	193.278
772.674	194.711
772.802	192.732
772.930	191.557
773.058	188.443
773.187	186.722
773.315	190.340
773.443	189.608
773.571	187.381
773.699	181.835
773.827	188.371
773.955	189.876
774.083	191.103
774.212	186.103
774.340	186.536
774.468	187.072
774.596	185.330
774.724	185.701
774.852	187.072
774.980	188.330
775.108	185.608
775.237	185.206
775.365	182.206
775.493	186.227
775.621	184.124
775.749	185.639
775.877	184.464
776.005	183.660
776.133	185.918
776.262	185.866
776.390	182.608
776.518	180.948
776.646	182.433
776.774	180.124
776.902	184.320
777.030	179.691
777.158	183.041
777.287	182.887
777.415	182.546
777.543	182.031
777.671	181.134
777.799	177.990
777.927	183.082
778.055	181.227
778.183	182.371
778.312	180.155
778.440	179.629
778.568	178.938
778.696	177.186
778.824	181.412
778.952	178.897
779.080	174.155
779.208	177.433
779.337	177.268
779.465	177.082
779.593	176.691
779.721	175.320
779.849	177.000
779.977	176.247
780.105	178.041
780.233	176.309
780.362	175.701
780.490	174.093
780.618	176.289
780.746	173.959
780.874	173.340
781.002	171.948
781.130	175.010
781.258	171.175
781.387	174.351
781.515	172.526
781.643	171.021
781.771	174.660
781.899	173.340
782.027	169.608
782.155	171.948
782.283	169.433
782.412	168.433
782.540	172.072
782.668	171.732
782.796	169.969
782.924	170.794
783.052	167.629
783.180	169.773
783.308	172.485
783.437	172.144
783.565	170.371
783.693	171.330
783.821	169.330
783.949	167.763
784.077	168.103
784.205	168.433
784.333	169.082
784.462	167.938
784.590	169.948
784.718	167.474
784.846	166.670
784.974	166.402
785.102	166.639
785.230	167.206
785.358	166.567
785.487	166.113
785.615	166.000
785.743	164.742
785.871	163.155
785.999	167.278
786.127	163.948
786.255	166.443
786.383	164.134
786.512	165.227
786.640	164.258
786.768	164.670
786.896	163.680
787.024	163.649
787.152	161.526
787.280	163.258
787.408	166.165
787.537	163.351
787.665	164.701
787.793	162.268
787.921	164.031
788.049	163.454
788.177	161.866
788.305	160.722
788.433	162.639
788.562	160.907
788.690	160.000
788.818	162.021
788.946	162.082
789.074	159.505
789.202	160.134
789.330	159.897
789.458	160.464
789.587	158.794
789.715	159.289
789.843	160.691
789.971	160.485
790.099	159.567
790.227	159.309
790.355	156.990
790.483	160.515
790.612	155.969
790.740	159.495
790.868	158.443
790.996	160.454
791.124	159.216
791.252	157.546
791.380	158.969
791.508	154.289
791.637	157.216
791.765	156.082
791.893	151.742
792.021	156.412
792.149	154.474
792.277	152.845
792.405	157.000
792.533	152.402
792.662	155.670
792.790	155.732
792.918	157.186
793.046	152.722
793.174	155.093
793.302	153.216
793.430	155.557
793.558	154.660
793.687	153.876
793.815	149.804
793.943	152.485
794.071	149.134
794.199	150.144
794.327	150.505
794.455	151.093
794.583	150.227
794.712	152.412
794.840	149.041
794.968	147.670
795.096	150.423
795.224	152.670
795.352	150.021
795.480	149.825
795.608	153.649
795.737	150.732
795.865	147.948
795.993	148.433
796.121	150.495
796.249	151.742
796.377	147.268
796.505	148.577
796.633	152.423
796.762	148.402
796.890	151.856
797.018	146.258
797.146	147.887
797.274	144.959
797.402	144.062
797.530	145.000
797.658	148.619
797.787	145.010
797.915	145.371
798.043	147.701
798.171	146.814
798.299	143.887
798.427	144.907
798.555	142.299
798.683	144.010
798.812	144.546
798.940	142.052
799.068	143.608
799.196	144.392
799.324	142.670
799.452	143.835
799.580	143.567
799.708	143.536
799.837	141.464
799.965	141.639
800.093	140.144
800.221	143.845
800.349	141.299
800.477	139.856
800.605	141.258
800.733	142.598
800.862	143.773
800.990	141.742
801.118	141.639
801.246	137.990
801.374	139.196
801.502	140.515
801.630	138.536
801.758	139.041
801.887	138.959
802.015	138.753
802.143	137.773
802.271	141.237
802.399	139.670
802.527	137.021
802.655	136.866
802.783	138.196
802.912	137.206
803.040	138.299
803.168	135.155
803.296	137.485
803.424	138.072
803.552	136.320
803.680	133.598
803.808	136.330
803.937	136.268
804.065	137.216
804.193	134.907
804.321	134.876
804.449	133.711
804.577	134.124
804.705	135.155
804.833	133.165
804.962	136.959
805.090	135.887
805.218	135.443
805.346	135.124
805.474	133.794
805.602	138.351
805.730	131.897
805.858	134.247
805.987	131.711
806.115	133.134
806.243	131.753
806.371	133.608
806.499	135.124
806.627	131.814
806.755	132.546
806.883	135.072
807.012	132.485
807.140	132.918
807.268	131.351
807.396	132.526
807.524	132.763
807.652	132.082
807.780	133.464
807.908	131.062
808.037	129.639
808.165	130.742
808.293	129.742
808.421	132.526
808.549	132.196
808.677	129.629
808.805	132.072
808.933	130.856
809.062	129.299
809.190	132.897
809.318	129.134
809.446	130.629
809.574	129.763
809.702	132.134
809.830	130.876
809.958	129.423
810.087	127.608
810.215	130.907
810.343	132.186
810.471	131.773
810.599	129.392
810.727	132.773
810.855	129.134
810.983	130.948
811.112	130.835
811.240	127.835
811.368	128.237
811.496	128.412
811.624	130.454
811.752	127.505
811.880	129.948
812.008	126.278
812.137	128.289
812.265	128.155
812.393	129.186
812.521	126.216
812.649	125.948
812.777	127.021
812.905	126.701
813.033	125.536
813.162	124.907
813.290	128.887
813.418	128.619
813.546	126.546
813.674	127.691
813.802	126.711
813.930	124.361
814.058	125.010
814.187	127.351
814.315	124.825
814.443	126.495
814.571	125.134
814.699	125.526
814.827	126.206
814.955	127.021
815.083	127.113
815.212	128.670
815.340	123.784
815.468	124.412
815.596	121.588
815.724	124.010
815.852	123.608
815.980	123.918
816.108	122.794
816.237	124.711
816.365	122.381
816.493	123.680
816.621	123.742
816.749	124.309
816.877	123.814
817.005	123.165
817.133	124.155
817.262	124.124
817.390	123.361
817.518	122.526
817.646	121.247
817.774	121.216
817.902	122.804
818.030	121.660
818.158	122.845
818.287	123.052
818.415	121.144
818.543	120.392
818.671	121.536
818.799	122.216
818.927	120.948
819.055	121.670
819.183	122.608
819.312	121.381
819.440	120.515
819.568	121.557
819.696	123.165
819.824	119.216
819.952	117.722
820.080	118.268
820.208	120.588
820.337	122.330
820.465	118.866
820.593	118.567
820.721	118.474
820.849	118.196
820.977	116.856
821.105	118.732
821.233	118.711
821.362	119.876
821.490	118.093
821.618	118.258
821.746	117.021
821.874	117.680
822.002	117.557
822.130	118.495
822.258	117.289
822.387	116.474
822.515	118.722
822.643	116.412
822.771	115.340
822.899	117.289
823.027	119.340
823.155	116.144
823.283	117.474
823.412	119.454
823.540	118.351
823.668	119.000
823.796	115.825
823.924	116.701
824.052	115.979
824.180	115.732
824.308	116.876
824.437	116.278
824.565	116.753
824.693	116.856
824.821	117.093
824.949	115.887
825.077	115.619
825.205	115.124
825.333	116.041
825.462	116.134
825.590	116.959
825.718	113.433
825.846	115.113
825.974	115.979
826.102	115.361
826.230	113.918
826.358	113.402
826.487	114.423
826.615	112.866
826.743	115.402
826.871	114.928
826.999	116.536
827.127	114.010
827.255	113.392
827.383	112.144
827.512	111.546
827.640	114.804
827.768	115.072
827.896	113.897
828.024	112.691
828.152	115.660
828.280	115.443
828.408	114.928
828.537	113.433
828.665	114.443
828.793	113.856
828.921	114.186
829.049	111.784
829.177	112.845
829.305	114.557
829.433	113.732
829.562	111.856
829.690	112.423
829.818	112.134
829.946	111.691
830.074	112.103
830.202	114.000
830.330	113.340
830.458	112.454
830.587	111.753
830.715	112.577
830.843	111.845
830.971	111.320
831.099	109.845
831.227	110.835
831.355	111.289
831.483	112.144
831.612	112.268
831.740	111.979
831.868	110.680
831.996	111.351
832.124	112.742
832.252	111.134
832.380	112.196
832.508	110.052
832.637	111.320
832.765	111.299
832.893	111.392
833.021	111.052
833.149	111.021
833.277	112.629
833.405	113.351
833.533	109.588
833.662	111.608
833.790	110.186
833.918	111.485
834.046	111.072
834.174	109.825
834.302	111.485
834.430	110.072
834.558	109.670
834.687	110.062
834.815	110.412
834.943	111.268
835.071	109.000
835.199	109.485
835.327	109.423
835.455	109.134
835.583	110.608
835.712	110.691
835.840	110.433
835.968	109.299
836.096	110.887
836.224	109.608
836.352	110.134
836.480	110.753
836.608	109.629
836.737	110.299
836.865	110.113
836.993	111.392
837.121	110.227
837.249	109.753
837.377	109.505
837.505	108.124
837.633	108.784
837.762	108.330
837.890	108.371
838.018	106.876
838.146	108.227
838.274	109.278
838.402	109.536
838.530	108.454
838.658	109.021
838.787	107.309
838.915	108.258
839.043	108.794
839.171	108.134
839.299	107.814
839.427	108.000
839.555	109.041
839.683	109.402
839.812	108.330
839.940	107.711
840.068	108.072
840.196	108.268
840.324	108.784
840.452	108.670
840.580	107.258
840.708	108.247
840.837	108.082
840.965	108.268
841.093	109.031
841.221	108.433
841.349	109.134
841.477	108.938
841.605	107.268
841.733	105.567
841.862	107.443
841.990	108.392
842.118	109.124
842.246	107.186
842.374	107.938
842.502	107.959
842.630	108.000
842.758	107.258
842.887	107.670
843.015	107.546
843.143	107.505
843.271	107.814
843.399	106.804
843.527	106.258
843.655	107.227
843.783	108.495
843.912	107.206
844.040	108.433
844.168	107.103
844.296	107.773
844.424	107.938
844.552	107.216
844.680	106.598
844.808	107.134
844.937	105.536
845.065	106.268
845.193	106.608
845.321	106.474
845.449	107.814
845.577	106.515
845.705	106.804
845.833	107.711
845.962	105.794
846.090	105.711
846.218	106.052
846.346	106.546
846.474	105.320
846.602	106.082
846.730	106.000
846.858	106.423
846.987	105.247
847.115	106.062
847.243	105.361
847.371	107.649
847.499	105.124
847.627	105.021
847.755	104.608
847.883	104.938
848.012	105.505
848.140	105.784
848.268	105.701
848.396	106.536
848.524	106.515
848.652	105.577
848.780	104.536
848.908	106.206
849.037	105.495
849.165	105.515
849.293	105.113
849.421	106.031
849.549	105.887
849.677	104.155
849.805	104.856
849.933	106.649
850.062	106.268
850.190	103.794
850.318	104.814
850.446	105.845
850.574	104.763
850.702	104.082
850.830	104.866
850.958	104.701
851.087	105.454
851.215	105.361
851.343	104.041
851.471	103.897
851.599	105.753
851.727	103.732
851.855	104.979
851.983	104.515
852.112	104.753
852.240	104.258
852.368	105.258
852.496	103.165
852.624	103.361
852.752	104.031
852.880	103.598
853.008	104.278
853.137	104.588
853.265	104.794
853.393	104.814
853.521	105.670
853.649	104.165
853.777	104.639
853.905	104.021
854.033	103.990
854.162	103.000
854.290	103.588
854.418	103.907
854.546	102.784
854.674	103.711
854.802	102.835
854.930	102.464
855.058	102.144
855.187	104.392
855.315	102.639
855.443	104.526
855.571	104.289
855.699	105.701
855.827	102.392
855.955	103.196
856.083	103.144
856.212	104.330
856.340	104.289
856.468	102.268
856.596	103.351
856.724	103.794
856.852	104.175
856.980	102.619
857.108	103.546
857.237	103.412
857.365	102.866
857.493	103.732
857.621	103.062
857.749	101.680
857.877	102.330
858.005	104.608
858.133	102.144
858.262	102.546
858.390	103.948
858.518	102.742
858.646	102.608
858.774	103.742
858.902	104.165
859.030	103.268
859.158	102.979
859.287	102.660
859.415	103.711
859.543	103.237
859.671	103.619
859.799	104.031
859.927	104.371
860.055	103.536
860.183	102.732
860.312	103.186
860.440	101.814
860.568	103.052
860.696	102.918
860.824	103.278
860.952	101.845
861.080	102.856
861.208	102.680
861.337	102.505
861.465	101.474
861.593	103.505
861.721	102.330
861.849	102.361
861.977	102.216
862.105	101.825
862.233	102.680
862.362	101.835
862.490	102.062
862.618	101.887
862.746	102.773
862.874	102.598
863.002	102.268
863.130	102.557
863.258	104.340
863.387	102.247
863.515	102.144
863.643	103.082
863.771	102.619
863.899	102.402
864.027	104.268
864.155	102.268
864.283	102.289
864.412	103.876
864.540	102.010
864.668	101.237
864.796	102.660
864.924	101.887
865.052	101.577
865.180	102.454
865.308	102.619
865.437	102.443
865.565	101.825
865.693	101.443
865.821	102.000
865.949	102.876
866.077	102.938
866.205	101.722
866.333	101.423
866.462	101.567
866.590	101.680
866.718	101.629
866.846	102.629
866.974	102.443
867.102	101.495
867.230	101.670
867.358	101.897
867.487	101.495
867.615	101.278
867.743	101.876
867.871	102.361
867.999	102.608
868.127	101.928
868.255	101.763
868.383	102.216
868.512	102.381
868.640	102.845
868.768	102.340
868.896	101.144
869.024	101.526
869.152	101.845
869.280	102.196
869.408	102.876
869.537	102.113
869.665	101.464
869.793	101.474
869.921	101.186
870.049	102.763
870.177	102.732
870.305	101.773
870.433	102.289
870.562	101.227
870.690	101.845
870.818	102.093
870.946	101.474
871.074	101.649
871.202	101.278
871.330	102.763
871.458	102.515
871.587	102.216
871.715	99.825
871.843	102.320
871.971	102.990
872.099	99.392
872.227	101.124
872.355	101.093
872.483	101.629
872.612	103.186
872.740	101.340
872.868	100.969
872.996	100.330
873.124	100.608
873.252	102.804
873.380	99.577
873.508	101.918
873.637	102.186
873.765	99.072
873.893	101.845
874.021	102.907
874.149	102.031
874.277	102.433
874.405	102.402
874.533	102.351
874.662	100.072
874.790	100.639
874.918	102.165
875.046	100.918
875.174	100.340
875.302	101.093
875.430	100.959
875.558	100.608
875.687	101.691
875.815	103.155
875.943	102.392
876.071	102.402
876.199	102.619
876.327	101.464
876.455	101.670
876.583	102.794
876.712	100.876
876.840	99.763
876.968	101.340
877.096	100.505
877.224	101.804
877.352	101.186
877.480	101.351
877.608	100.526
877.737	100.351
877.865	101.237
877.993	101.082
878.121	101.227
878.249	102.381
878.377	100.938
878.505	100.371
878.633	101.268
878.762	102.237
878.890	100.577
879.018	100.113
879.146	100.887
879.274	101.845
879.402	102.381
879.530	101.454
879.658	102.887
879.787	101.742
879.915	100.804
880.043	101.247
880.171	100.330
880.299	100.268
880.427	100.144
880.555	100.546
880.683	101.639
880.812	102.505
880.940	101.381
881.068	100.990
881.196	101.299
881.324	100.969
881.452	101.773
881.580	101.031
881.708	100.588
881.837	102.021
881.965	101.227
882.093	101.268
882.221	99.515
882.349	100.784
882.477	102.495
882.605	101.598
882.733	100.876
882.862	101.124
882.990	100.247
883.118	102.722
883.246	101.814
883.374	102.041
883.502	100.887
883.630	102.588
883.758	101.691
883.887	100.680
884.015	103.515
884.143	101.454
884.271	102.784
884.399	100.546
884.527	100.278
884.655	100.629
884.783	101.701
884.912	102.144
885.040	100.320
885.168	101.423
885.296	101.021
885.424	101.021
885.552	101.557
885.680	100.485
885.808	101.557
885.937	102.433
886.065	100.412
886.193	100.670
886.321	101.526
886.449	101.433
886.577	101.485
886.705	101.165
886.833	100.897
886.962	100.918
887.090	100.969
887.218	100.722
887.346	99.794
887.474	101.082
887.602	101.546
887.730	100.753
887.858	99.567
887.987	100.392
888.115	100.443
888.243	102.041
888.371	101.268
888.499	101.907
888.627	99.546
888.755	100.031
888.883	101.412
889.012	101.124
889.140	100.072
889.268	100.082
889.396	101.515
889.524	100.113
889.652	100.608
889.780	100.495
889.908	100.660
890.037	100.598
890.165	99.866
890.293	101.598
890.421	101.124
890.549	102.701
890.677	100.361
890.805	101.990
890.933	101.113
891.062	100.866
891.190	100.443
891.318	101.247
891.446	101.464
891.574	100.619
891.702	99.237
891.830	100.392
891.958	100.742
892.087	101.093
892.215	101.670
892.343	101.897
892.471	100.979
892.599	102.402
892.727	101.619
892.855	101.454
892.983	101.959
893.112	100.557
893.240	100.629
893.368	100.423
893.496	102.526
893.624	102.103
893.752	102.206
893.880	100.175
894.008	100.299
894.137	100.918
894.265	100.309
894.393	101.495
894.521	100.835
894.649	101.536
894.777	99.742
894.905	100.763
895.033	101.433
895.162	101.144
895.290	100.794
895.418	101.784
895.546	103.907
895.674	101.010
895.802	99.876
895.930	101.041
896.058	100.794
896.187	100.794
896.315	101.320
896.443	101.010
896.571	101.608
896.699	102.392
896.827	101.443
896.955	100.773
897.083	101.742
897.212	102.474
897.340	99.969
897.468	100.299
897.596	101.093
897.724	100.515
897.852	100.938
897.980	100.443
898.108	100.887
898.237	100.474
898.365	100.567
898.493	101.660
898.621	100.794
898.749	100.206
898.877	99.897
899.005	100.464
899.133	100.722
899.262	100.711
899.390	100.639
899.518	100.000
899.646	101.124
899.774	101.402
899.902	100.773
900.030	101.021
900.158	100.887
900.287	101.021
900.415	100.742
900.543	101.351
900.671	102.701
900.799	100.722
900.927	100.557
901.055	99.825
901.183	100.155
901.312	99.639
901.440	101.113
901.568	101.093
901.696	101.021
901.824	99.897
901.952	102.155
902.080	101.093
902.208	100.918
902.337	100.897
902.465	100.979
902.593	101.557
902.721	102.495
902.849	100.990
902.977	99.938
903.105	101.196
903.233	101.268
903.362	102.361
903.490	100.753
903.618	100.062
903.746	100.701
903.874	100.701
904.002	101.113
904.130	100.742
904.258	100.144
904.387	100.639
904.515	100.093
904.643	101.309
904.771	100.918
904.899	100.959
905.027	101.093
905.155	99.546
905.283	101.155
905.412	100.897
905.540	101.340
905.668	99.309
905.796	100.010
905.924	100.722
906.052	101.887
906.180	102.320
906.308	99.340
906.437	99.423
906.565	100.320
906.693	101.062
906.821	97.979
906.949	99.464
907.077	101.010
907.205	102.412
907.333	100.536
907.462	101.247
907.590	101.608
907.718	100.588
907.846	100.990
907.974	100.887
908.102	100.320
908.230	99.691
908.358	99.660
908.487	100.351
908.615	102.412
908.743	100.247
908.871	101.794
908.999	101.072
909.127	100.433
909.255	100.330
909.383	99.814
909.512	100.866
909.640	101.443
909.768	101.825
909.896	100.639
910.024	101.443
910.152	101.918
910.280	100.825
910.408	101.825
910.537	102.000
910.665	101.299
910.793	100.423
910.921	100.186
911.049	100.794
911.177	101.299
911.305	101.175
911.433	100.680
911.562	101.866
911.690	101.247
911.818	100.175
911.946	100.969
912.074	101.763
912.202	100.959
912.330	99.979
912.458	101.680
912.587	101.763
912.715	102.227
912.843	101.237
912.971	101.722
913.099	101.072
913.227	101.247
913.355	101.134
913.483	100.969
913.612	101.402
913.740	101.041
913.868	100.546
