sample15v_at_750.00nm_cut_at_1060.50Y_01.dat
19.06.2023
11:22:58
cut middle at Y: 1060.50
top cursor: 1109 down cursor: 1012 mean of: 97 lines , 2560 datapoints
wavelength(nm)	intensity[arb. units]
585.996	834.701
586.124	808.722
586.252	803.124
586.380	803.887
586.508	802.144
586.637	801.814
586.765	804.515
586.893	812.454
587.021	816.041
587.149	809.165
587.277	810.928
587.405	814.907
587.533	806.845
587.662	807.794
587.790	810.577
587.918	811.361
588.046	817.938
588.174	817.856
588.302	815.320
588.430	803.969
588.558	803.485
588.687	823.175
588.815	814.082
588.943	813.588
589.071	819.052
589.199	822.412
589.327	808.887
589.455	811.021
589.583	815.619
589.712	822.835
589.840	814.887
589.968	808.010
590.096	820.814
590.224	813.278
590.352	814.938
590.480	812.773
590.608	815.938
590.737	804.784
590.865	813.113
590.993	806.103
591.121	819.711
591.249	809.062
591.377	816.247
591.505	805.660
591.633	809.268
591.762	820.485
591.890	809.495
592.018	808.454
592.146	808.608
592.274	823.794
592.402	815.082
592.530	810.093
592.658	813.041
592.787	817.402
592.915	814.784
593.043	823.082
593.171	821.309
593.299	822.680
593.427	823.072
593.555	825.742
593.683	822.969
593.812	821.031
593.940	824.155
594.068	827.330
594.196	835.237
594.324	832.588
594.452	836.320
594.580	833.619
594.708	835.577
594.837	848.237
594.965	846.887
595.093	847.711
595.221	845.289
595.349	849.608
595.477	850.845
595.605	857.814
595.733	870.412
595.862	859.299
595.990	852.206
596.118	857.649
596.246	865.082
596.374	863.887
596.502	865.680
596.630	873.330
596.758	863.773
596.887	872.845
597.015	874.629
597.143	864.649
597.271	872.289
597.399	878.062
597.527	872.247
597.655	873.866
597.783	871.268
597.912	865.196
598.040	862.680
598.168	868.825
598.296	864.680
598.424	863.711
598.552	865.474
598.680	860.186
598.808	857.804
598.937	856.835
599.065	865.794
599.193	858.330
599.321	860.041
599.449	861.649
599.577	868.052
599.705	856.887
599.833	852.320
599.962	859.639
600.090	864.876
600.218	860.598
600.346	852.010
600.474	857.381
600.602	870.814
600.730	865.557
600.858	858.907
600.987	861.062
601.115	859.041
601.243	856.165
601.371	863.557
601.499	861.320
601.627	860.505
601.755	878.309
601.883	871.773
602.012	873.753
602.140	870.155
602.268	872.907
602.396	881.412
602.524	875.464
602.652	882.093
602.780	888.340
602.908	889.227
603.037	892.639
603.165	886.010
603.293	903.227
603.421	904.320
603.549	891.340
603.677	912.546
603.805	899.536
603.933	908.062
604.062	904.433
604.190	918.010
604.318	906.062
604.446	917.000
604.574	915.000
604.702	915.309
604.830	919.526
604.958	931.381
605.087	934.918
605.215	939.237
605.343	934.701
605.471	952.124
605.599	936.979
605.727	949.742
605.855	942.876
605.983	941.268
606.112	956.144
606.240	951.546
606.368	947.196
606.496	949.082
606.624	949.938
606.752	962.206
606.880	958.557
607.008	961.381
607.137	962.144
607.265	971.742
607.393	961.825
607.521	961.536
607.649	958.464
607.777	955.918
607.905	968.082
608.033	961.082
608.162	956.124
608.290	957.423
608.418	957.649
608.546	960.000
608.674	961.619
608.802	956.299
608.930	966.361
609.058	958.175
609.187	959.062
609.315	955.464
609.443	961.052
609.571	949.134
609.699	949.577
609.827	941.134
609.955	960.361
610.083	952.969
610.212	950.144
610.340	951.845
610.468	950.093
610.596	955.784
610.724	952.278
610.852	957.093
610.980	955.412
611.108	969.031
611.237	954.649
611.365	950.670
611.493	954.320
611.621	957.464
611.749	958.619
611.877	960.186
612.005	961.773
612.133	960.526
612.262	957.289
612.390	966.876
612.518	975.639
612.646	964.711
612.774	972.124
612.902	964.990
613.030	977.299
613.158	977.186
613.287	978.495
613.415	984.052
613.543	983.979
613.671	987.381
613.799	987.722
613.927	995.010
614.055	991.062
614.183	995.567
614.312	988.907
614.440	994.639
614.568	993.021
614.696	1011.134
614.824	1008.732
614.952	1000.670
615.080	1012.814
615.208	1014.825
615.337	1017.041
615.465	1019.546
615.593	1016.876
615.721	1018.649
615.849	1027.021
615.977	1022.928
616.105	1022.186
616.233	1028.268
616.362	1034.825
616.490	1023.959
616.618	1036.835
616.746	1033.340
616.874	1033.103
617.002	1031.320
617.130	1040.361
617.258	1033.979
617.387	1031.825
617.515	1042.268
617.643	1029.918
617.771	1038.773
617.899	1035.196
618.027	1027.454
618.155	1040.402
618.283	1030.113
618.412	1040.845
618.540	1039.866
618.668	1042.351
618.796	1037.577
618.924	1053.052
619.052	1045.371
619.180	1050.505
619.308	1043.794
619.437	1035.351
619.565	1046.423
619.693	1035.113
619.821	1052.784
619.949	1047.010
620.077	1037.144
620.205	1046.402
620.333	1052.392
620.462	1047.082
620.590	1044.227
620.718	1054.526
620.846	1042.402
620.974	1054.619
621.102	1049.938
621.230	1052.907
621.358	1048.237
621.487	1049.021
621.615	1056.680
621.743	1053.206
621.871	1057.433
621.999	1049.258
622.127	1045.423
622.255	1042.021
622.383	1046.361
622.512	1051.897
622.640	1046.680
622.768	1055.691
622.896	1048.660
623.024	1040.320
623.152	1057.134
623.280	1042.763
623.408	1049.649
623.537	1054.918
623.665	1055.258
623.793	1052.670
623.921	1044.124
624.049	1042.660
624.177	1054.186
624.305	1047.371
624.433	1043.454
624.562	1046.588
624.690	1041.165
624.818	1044.474
624.946	1057.186
625.074	1030.402
625.202	1051.763
625.330	1039.567
625.458	1052.082
625.587	1047.371
625.715	1047.784
625.843	1046.567
625.971	1050.701
626.099	1044.660
626.227	1043.753
626.355	1039.567
626.483	1048.052
626.612	1044.856
626.740	1037.330
626.868	1048.814
626.996	1047.144
627.124	1050.835
627.252	1054.412
627.380	1049.299
627.508	1041.773
627.637	1048.753
627.765	1043.907
627.893	1061.320
628.021	1047.835
628.149	1063.660
628.277	1055.412
628.405	1059.237
628.533	1060.825
628.662	1055.649
628.790	1065.021
628.918	1064.845
629.046	1070.216
629.174	1066.402
629.302	1080.206
629.430	1063.371
629.558	1072.773
629.687	1074.299
629.815	1071.546
629.943	1075.134
630.071	1075.959
630.199	1078.010
630.327	1068.979
630.455	1074.186
630.583	1075.577
630.712	1084.124
630.840	1088.155
630.968	1094.227
631.096	1092.402
631.224	1087.072
631.352	1073.588
631.480	1070.351
631.608	1088.175
631.737	1089.959
631.865	1094.392
631.993	1085.598
632.121	1085.629
632.249	1106.856
632.377	1095.639
632.505	1083.938
632.633	1087.330
632.762	1097.918
632.890	1090.536
633.018	1093.072
633.146	1083.392
633.274	1093.433
633.402	1086.124
633.530	1085.423
633.658	1092.742
633.787	1081.649
633.915	1089.299
634.043	1078.299
634.171	1078.134
634.299	1088.351
634.427	1087.515
634.555	1078.742
634.683	1089.351
634.812	1074.124
634.940	1093.216
635.068	1070.196
635.196	1084.464
635.324	1083.351
635.452	1086.773
635.580	1082.619
635.708	1080.918
635.837	1072.268
635.965	1070.948
636.093	1074.175
636.221	1065.247
636.349	1067.144
636.477	1058.021
636.605	1057.423
636.733	1074.619
636.862	1059.639
636.990	1050.608
637.118	1056.907
637.246	1039.412
637.374	1052.227
637.502	1057.443
637.630	1063.320
637.758	1053.794
637.887	1058.680
638.015	1057.309
638.143	1058.814
638.271	1040.474
638.399	1045.062
638.527	1040.196
638.655	1057.639
638.783	1060.392
638.912	1051.557
639.040	1045.381
639.168	1050.608
639.296	1047.134
639.424	1045.918
639.552	1048.608
639.680	1049.258
639.808	1044.186
639.937	1037.124
640.065	1040.093
640.193	1051.464
640.321	1036.722
640.449	1049.423
640.577	1034.227
640.705	1033.144
640.833	1031.701
640.962	1048.495
641.090	1043.402
641.218	1046.804
641.346	1030.268
641.474	1035.196
641.602	1037.340
641.730	1040.216
641.858	1035.320
641.987	1048.361
642.115	1040.052
642.243	1045.340
642.371	1051.979
642.499	1044.536
642.627	1045.000
642.755	1043.835
642.883	1046.330
643.012	1043.381
643.140	1049.887
643.268	1048.443
643.396	1046.588
643.524	1045.402
643.652	1046.175
643.780	1038.928
643.908	1042.010
644.037	1041.680
644.165	1051.258
644.293	1047.082
644.421	1043.598
644.549	1054.010
644.677	1050.856
644.805	1049.093
644.933	1042.247
645.062	1052.010
645.190	1034.856
645.318	1044.515
645.446	1056.247
645.574	1053.485
645.702	1049.835
645.830	1049.794
645.958	1054.361
646.087	1049.979
646.215	1051.474
646.343	1056.093
646.471	1046.186
646.599	1048.959
646.727	1045.804
646.855	1037.866
646.983	1052.887
647.112	1046.938
647.240	1048.351
647.368	1038.495
647.496	1036.361
647.624	1027.907
647.752	1031.660
647.880	1040.052
648.008	1036.979
648.137	1026.711
648.265	1032.876
648.393	1038.052
648.521	1031.536
648.649	1031.546
648.777	1024.175
648.905	1031.072
649.033	1013.763
649.162	1021.495
649.290	1018.845
649.418	1016.278
649.546	1017.918
649.674	1022.155
649.802	1013.835
649.930	1011.845
650.058	1011.320
650.187	1001.474
650.315	1014.392
650.443	1005.876
650.571	1016.887
650.699	1004.845
650.827	1007.742
650.955	1002.464
651.083	1007.072
651.212	1001.082
651.340	1000.113
651.468	999.443
651.596	997.536
651.724	999.361
651.852	996.619
651.980	994.722
652.108	1000.474
652.237	993.144
652.365	987.010
652.493	984.969
652.621	985.165
652.749	982.175
652.877	986.072
653.005	985.876
653.133	988.907
653.262	990.268
653.390	980.918
653.518	979.845
653.646	976.052
653.774	977.021
653.902	980.320
654.030	971.969
654.158	974.557
654.287	973.567
654.415	966.464
654.543	958.464
654.671	959.959
654.799	966.742
654.927	957.093
655.055	960.247
655.183	959.629
655.312	947.278
655.440	954.196
655.568	952.361
655.696	954.144
655.824	958.845
655.952	947.196
656.080	952.680
656.208	957.443
656.337	948.990
656.465	952.515
656.593	937.907
656.721	949.608
656.849	947.361
656.977	941.113
657.105	944.897
657.233	943.351
657.362	933.278
657.490	942.093
657.618	937.907
657.746	918.928
657.874	925.825
658.002	931.031
658.130	926.227
658.258	929.299
658.387	924.588
658.515	919.588
658.643	925.423
658.771	923.113
658.899	920.876
659.027	922.134
659.155	922.856
659.283	913.258
659.412	910.660
659.540	906.299
659.668	908.381
659.796	905.928
659.924	914.474
660.052	898.567
660.180	903.577
660.308	908.897
660.437	902.155
660.565	894.485
660.693	892.959
660.821	893.753
660.949	894.433
661.077	889.804
661.205	884.474
661.333	886.928
661.462	892.485
661.590	892.155
661.718	870.619
661.846	882.454
661.974	879.918
662.102	888.031
662.230	885.835
662.358	883.598
662.487	883.103
662.615	872.990
662.743	875.082
662.871	876.268
662.999	880.577
663.127	873.361
663.255	873.124
663.383	870.515
663.512	874.670
663.640	871.289
663.768	872.691
663.896	872.629
664.024	869.732
664.152	866.144
664.280	869.103
664.408	859.186
664.537	864.268
664.665	861.629
664.793	853.660
664.921	854.041
665.049	854.021
665.177	861.897
665.305	858.969
665.433	863.134
665.562	864.557
665.690	860.216
665.818	863.103
665.946	844.031
666.074	852.299
666.202	846.144
666.330	850.000
666.458	854.835
666.587	852.340
666.715	854.340
666.843	851.113
666.971	844.959
667.099	840.402
667.227	852.381
667.355	846.433
667.483	853.144
667.612	845.887
667.740	848.309
667.868	845.072
667.996	843.557
668.124	842.639
668.252	839.010
668.380	840.423
668.508	848.412
668.637	831.247
668.765	838.557
668.893	838.392
669.021	832.763
669.149	825.278
669.277	829.814
669.405	835.577
669.533	830.144
669.662	834.309
669.790	822.567
669.918	827.660
670.046	819.546
670.174	820.845
670.302	816.598
670.430	819.258
670.558	814.567
670.687	817.794
670.815	811.340
670.943	807.361
671.071	808.186
671.199	804.825
671.327	801.474
671.455	811.227
671.583	808.557
671.712	787.948
671.840	794.082
671.968	796.247
672.096	786.351
672.224	789.330
672.352	793.536
672.480	784.979
672.608	778.629
672.737	790.608
672.865	779.938
672.993	780.784
673.121	776.825
673.249	777.773
673.377	773.567
673.505	771.918
673.633	763.897
673.762	764.000
673.890	765.381
674.018	759.361
674.146	758.495
674.274	754.536
674.402	756.351
674.530	747.887
674.658	747.320
674.787	747.680
674.915	741.443
675.043	738.505
675.171	738.196
675.299	733.330
675.427	730.052
675.555	729.423
675.683	731.093
675.812	727.536
675.940	718.206
676.068	729.062
676.196	717.990
676.324	721.309
676.452	715.103
676.580	715.031
676.708	712.134
676.837	716.918
676.965	708.526
677.093	705.247
677.221	708.268
677.349	696.371
677.477	703.361
677.605	694.753
677.733	696.402
677.862	685.938
677.990	694.732
678.118	685.052
678.246	685.629
678.374	678.454
678.502	684.536
678.630	677.619
678.758	681.361
678.887	679.309
679.015	680.340
679.143	675.433
679.271	671.093
679.399	665.134
679.527	665.381
679.655	669.423
679.783	661.722
679.912	662.856
680.040	655.278
680.168	664.845
680.296	653.814
680.424	658.856
680.552	651.175
680.680	658.433
680.808	650.186
680.937	648.402
681.065	656.701
681.193	649.505
681.321	654.237
681.449	643.866
681.577	641.206
681.705	642.701
681.833	638.443
681.962	635.093
682.090	635.784
682.218	637.155
682.346	627.732
682.474	637.165
682.602	638.381
682.730	626.567
682.858	632.237
682.987	630.093
683.115	622.876
683.243	627.485
683.371	630.495
683.499	622.433
683.627	632.000
683.755	621.216
683.883	627.969
684.012	622.753
684.140	624.485
684.268	614.082
684.396	622.495
684.524	622.639
684.652	611.866
684.780	621.464
684.908	612.938
685.037	614.113
685.165	614.897
685.293	617.258
685.421	611.876
685.549	612.340
685.677	607.990
685.805	607.701
685.933	606.515
686.062	609.082
686.190	609.330
686.318	602.660
686.446	599.278
686.574	603.649
686.702	598.433
686.830	604.165
686.958	595.474
687.087	594.825
687.215	591.887
687.343	596.495
687.471	594.227
687.599	595.000
687.727	587.670
687.855	591.381
687.983	589.711
688.112	592.186
688.240	582.526
688.368	586.216
688.496	584.969
688.624	579.381
688.752	583.701
688.880	575.082
689.008	580.299
689.137	583.412
689.265	572.392
689.393	568.887
689.521	573.918
689.649	568.938
689.777	564.155
689.905	564.381
690.033	575.814
690.162	568.753
690.290	569.186
690.418	563.124
690.546	555.711
690.674	567.722
690.802	557.289
690.930	557.629
691.058	554.876
691.187	552.320
691.315	549.990
691.443	550.361
691.571	553.608
691.699	542.113
691.827	548.918
691.955	540.031
692.083	536.144
692.212	545.320
692.340	537.021
692.468	545.052
692.596	535.309
692.724	537.186
692.852	527.948
692.980	528.155
693.108	533.907
693.237	528.959
693.365	531.804
693.493	525.763
693.621	527.299
693.749	521.660
693.877	514.505
694.005	520.526
694.133	517.041
694.262	513.515
694.390	510.485
694.518	509.454
694.646	507.361
694.774	509.144
694.902	505.247
695.030	510.969
695.158	504.155
695.287	497.722
695.415	502.938
695.543	498.134
695.671	497.227
695.799	491.588
695.927	488.072
696.055	492.041
696.183	498.711
696.312	493.072
696.440	490.722
696.568	489.856
696.696	483.918
696.824	484.505
696.952	480.155
697.080	482.062
697.208	483.021
697.337	480.691
697.465	474.680
697.593	475.268
697.721	472.660
697.849	474.505
697.977	472.000
698.105	470.268
698.233	469.474
698.362	468.196
698.490	472.299
698.618	465.753
698.746	465.567
698.874	459.907
699.002	460.918
699.130	457.784
699.258	464.124
699.387	452.701
699.515	453.010
699.643	455.278
699.771	458.959
699.899	459.825
700.027	457.804
700.155	447.278
700.283	443.979
700.412	446.351
700.540	446.464
700.668	445.072
700.796	447.536
700.924	435.660
701.052	437.103
701.180	437.351
701.308	430.340
701.437	437.072
701.565	432.041
701.693	430.237
701.821	432.412
701.949	428.588
702.077	423.309
702.205	426.907
702.333	423.825
702.462	422.876
702.590	418.866
702.718	421.330
702.846	414.918
702.974	418.608
703.102	414.928
703.230	416.227
703.358	406.526
703.487	407.041
703.615	411.412
703.743	406.938
703.871	400.753
703.999	403.474
704.127	403.608
704.255	402.454
704.383	400.340
704.512	393.763
704.640	396.010
704.768	394.536
704.896	391.691
705.024	390.660
705.152	390.742
705.280	388.186
705.408	389.495
705.537	386.474
705.665	388.897
705.793	378.629
705.921	380.392
706.049	379.938
706.177	378.495
706.305	378.082
706.433	374.443
706.562	372.670
706.690	370.392
706.818	373.990
706.946	373.320
707.074	368.866
707.202	365.155
707.330	369.433
707.458	365.825
707.587	362.526
707.715	364.124
707.843	365.928
707.971	359.969
708.099	363.227
708.227	354.753
708.355	360.773
708.483	352.619
708.612	359.845
708.740	358.938
708.868	353.979
708.996	349.742
709.124	353.062
709.252	353.000
709.380	348.990
709.508	345.268
709.637	350.433
709.765	343.959
709.893	342.381
710.021	347.381
710.149	340.258
710.277	345.938
710.405	342.443
710.533	341.144
710.662	337.505
710.790	334.247
710.918	337.124
711.046	336.887
711.174	337.144
711.302	329.897
711.430	338.134
711.558	334.629
711.687	333.124
711.815	332.794
711.943	328.299
712.071	329.918
712.199	328.258
712.327	324.371
712.455	327.680
712.583	327.691
712.712	327.897
712.840	326.093
712.968	320.546
713.096	324.670
713.224	323.794
713.352	322.454
713.480	321.814
713.608	319.216
713.737	319.155
713.865	324.423
713.993	316.608
714.121	316.485
714.249	315.454
714.377	312.938
714.505	316.134
714.633	310.175
714.762	310.278
714.890	316.124
715.018	311.948
715.146	311.990
715.274	308.918
715.402	308.247
715.530	307.351
715.658	306.454
715.787	305.773
715.915	308.784
716.043	307.485
716.171	305.423
716.299	303.742
716.427	299.835
716.555	300.206
716.683	302.227
716.812	299.969
716.940	302.485
717.068	296.175
717.196	297.660
717.324	294.948
717.452	294.371
717.580	292.897
717.708	290.608
717.837	290.454
717.965	290.093
718.093	291.928
718.221	283.701
718.349	291.680
718.477	295.918
718.605	281.732
718.733	289.309
718.862	283.175
718.990	285.330
719.118	278.299
719.246	282.814
719.374	286.845
719.502	284.082
719.630	282.330
719.758	284.227
719.887	282.546
720.015	282.381
720.143	273.825
720.271	277.701
720.399	275.887
720.527	274.567
720.655	274.113
720.783	276.938
720.912	268.515
721.040	276.103
721.168	271.237
721.296	267.155
721.424	270.340
721.552	265.433
721.680	266.464
721.808	267.649
721.937	266.742
722.065	263.175
722.193	264.742
722.321	261.588
722.449	259.670
722.577	260.247
722.705	261.649
722.833	259.742
722.962	258.660
723.090	253.309
723.218	256.835
723.346	255.536
723.474	255.216
723.602	252.165
723.730	244.856
723.858	257.186
723.987	248.567
724.115	251.021
724.243	246.979
724.371	248.515
724.499	247.866
724.627	248.082
724.755	244.124
724.883	247.918
725.012	244.979
725.140	246.866
725.268	246.711
725.396	242.845
725.524	240.784
725.652	236.918
725.780	237.340
725.908	238.031
726.037	236.433
726.165	237.691
726.293	233.237
726.421	235.381
726.549	233.598
726.677	235.536
726.805	234.113
726.933	230.742
727.062	228.639
727.190	230.588
727.318	230.093
727.446	230.598
727.574	234.330
727.702	231.175
727.830	228.103
727.958	227.629
728.087	229.186
728.215	228.227
728.343	226.371
728.471	226.814
728.599	222.485
728.727	226.557
728.855	225.309
728.983	225.196
729.112	220.340
729.240	217.175
729.368	219.381
729.496	218.856
729.624	219.691
729.752	222.010
729.880	217.196
730.008	222.825
730.137	214.773
730.265	221.443
730.393	219.351
730.521	213.804
730.649	213.856
730.777	213.144
730.905	213.711
731.033	211.423
731.162	216.165
731.290	211.196
731.418	215.052
731.546	210.639
731.674	210.103
731.802	208.753
731.930	210.866
732.058	209.165
732.187	208.052
732.315	208.423
732.443	209.649
732.571	208.320
732.699	208.598
732.827	201.938
732.955	207.330
733.083	205.742
733.212	204.763
733.340	205.144
733.468	203.082
733.596	206.113
733.724	201.237
733.852	202.320
733.980	200.804
734.108	202.082
734.237	197.392
734.365	194.598
734.493	202.031
734.621	202.629
734.749	200.155
734.877	200.557
735.005	201.041
735.133	199.897
735.262	199.320
735.390	195.371
735.518	197.258
735.646	195.495
735.774	194.825
735.902	198.856
736.030	195.619
736.158	198.381
736.287	193.814
736.415	196.381
736.543	196.876
736.671	195.639
736.799	194.649
736.927	193.072
737.055	193.227
737.183	194.433
737.312	194.433
737.440	190.289
737.568	192.196
737.696	192.485
737.824	189.526
737.952	193.680
738.080	193.866
738.208	190.165
738.337	188.814
738.465	190.670
738.593	188.361
738.721	187.485
738.849	185.124
738.977	187.773
739.105	186.660
739.233	189.021
739.362	183.701
739.490	183.979
739.618	186.227
739.746	188.021
739.874	183.010
740.002	184.041
740.130	183.515
740.258	180.990
740.387	186.433
740.515	181.072
740.643	186.381
740.771	186.155
740.899	184.753
741.027	178.505
741.155	181.825
741.283	181.928
741.412	180.856
741.540	181.237
741.668	179.082
741.796	179.330
741.924	178.845
742.052	178.485
742.180	180.443
742.308	177.814
742.437	177.670
742.565	176.309
742.693	176.010
742.821	177.536
742.949	179.216
743.077	176.557
743.205	180.237
743.333	172.928
743.462	175.711
743.590	174.330
743.718	174.649
743.846	173.289
743.974	172.959
744.102	172.680
744.230	175.680
744.358	173.680
744.487	175.082
744.615	168.887
744.743	173.856
744.871	174.113
744.999	168.722
745.127	170.113
745.255	167.113
745.383	172.392
745.512	173.990
745.640	171.031
745.768	171.206
745.896	167.948
746.024	170.309
746.152	170.670
746.280	170.052
746.408	167.082
746.537	170.381
746.665	172.608
746.793	166.557
746.921	170.887
747.049	167.567
747.177	168.371
747.305	167.536
747.433	167.124
747.562	168.196
747.690	166.918
747.818	167.485
747.946	169.495
748.074	163.454
748.202	164.010
748.330	162.814
748.458	165.093
748.587	165.515
748.715	161.567
748.843	164.814
748.971	163.433
749.099	162.722
749.227	162.443
749.355	159.732
749.483	161.670
749.612	161.639
749.740	156.175
749.868	159.588
749.996	159.124
750.124	160.165
750.252	161.464
750.380	161.711
750.508	159.330
750.637	157.103
750.765	159.134
750.893	161.876
751.021	156.897
751.149	159.340
751.277	158.289
751.405	163.753
751.533	159.526
751.662	164.526
751.790	157.660
751.918	159.443
752.046	159.062
752.174	154.567
752.302	155.660
752.430	157.918
752.558	156.247
752.687	153.732
752.815	156.619
752.943	156.464
753.071	153.722
753.199	154.577
753.327	155.258
753.455	154.340
753.583	155.165
753.712	154.794
753.840	152.701
753.968	155.598
754.096	149.155
754.224	153.629
754.352	152.629
754.480	154.608
754.608	151.773
754.737	147.918
754.865	151.918
754.993	150.660
755.121	150.732
755.249	148.186
755.377	148.928
755.505	151.392
755.633	149.649
755.762	147.485
755.890	149.567
756.018	148.258
756.146	149.948
756.274	146.103
756.402	150.216
756.530	149.031
756.658	147.247
756.787	146.144
756.915	145.196
757.043	145.794
757.171	144.639
757.299	144.619
757.427	146.103
757.555	144.825
757.683	147.144
757.812	146.443
757.940	145.938
758.068	146.216
758.196	145.361
758.324	145.959
758.452	142.887
758.580	140.320
758.708	145.052
758.837	143.990
758.965	142.371
759.093	141.753
759.221	143.505
759.349	141.320
759.477	142.134
759.605	140.412
759.733	142.216
759.862	143.113
759.990	139.113
760.118	139.175
760.246	136.299
760.374	139.021
760.502	139.082
760.630	141.278
760.758	140.258
760.887	138.825
761.015	139.474
761.143	138.629
761.271	137.124
761.399	138.825
761.527	139.990
761.655	136.577
761.783	137.928
761.912	137.247
762.040	136.134
762.168	136.608
762.296	136.784
762.424	137.598
762.552	134.443
762.680	134.784
762.808	137.268
762.937	135.454
763.065	135.557
763.193	137.258
763.321	136.247
763.449	135.536
763.577	133.443
763.705	134.495
763.833	138.186
763.962	133.155
764.090	133.742
764.218	135.443
764.346	132.330
764.474	132.412
764.602	134.763
764.730	133.103
764.858	133.258
764.987	133.918
765.115	130.062
765.243	132.711
765.371	133.773
765.499	130.454
765.627	134.041
765.755	131.216
765.883	127.732
766.012	130.464
766.140	127.567
766.268	131.412
766.396	131.773
766.524	130.258
766.652	130.196
766.780	126.443
766.908	129.392
767.037	130.990
767.165	130.330
767.293	130.227
767.421	129.371
767.549	128.907
767.677	129.711
767.805	129.608
767.933	128.216
768.062	128.876
768.190	127.608
768.318	130.113
768.446	130.093
768.574	128.340
768.702	129.186
768.830	130.052
768.958	126.103
769.087	130.021
769.215	128.216
769.343	128.732
769.471	128.206
769.599	130.155
769.727	127.814
769.855	125.021
769.983	124.093
770.112	126.144
770.240	126.722
770.368	125.289
770.496	126.557
770.624	126.155
770.752	129.691
770.880	127.619
771.008	125.454
771.137	126.412
771.265	123.454
771.393	124.959
771.521	126.474
771.649	125.814
771.777	125.155
771.905	126.082
772.033	128.340
772.162	126.113
772.290	125.103
772.418	125.722
772.546	125.309
772.674	126.175
772.802	123.536
772.930	123.361
773.058	123.443
773.187	120.567
773.315	123.680
773.443	122.773
773.571	123.598
773.699	121.196
773.827	122.979
773.955	124.072
774.083	125.072
774.212	122.402
774.340	123.856
774.468	122.361
774.596	122.660
774.724	125.856
774.852	122.010
774.980	121.000
775.108	121.031
775.237	121.268
775.365	118.763
775.493	122.485
775.621	120.722
775.749	120.928
775.877	122.753
776.005	121.742
776.133	121.928
776.262	121.247
776.390	119.959
776.518	120.144
776.646	122.505
776.774	121.423
776.902	121.330
777.030	120.670
777.158	119.845
777.287	120.588
777.415	120.773
777.543	120.577
777.671	120.515
777.799	119.567
777.927	122.536
778.055	118.969
778.183	120.711
778.312	119.536
778.440	119.134
778.568	120.165
778.696	119.866
778.824	120.031
778.952	118.144
779.080	116.897
779.208	119.062
779.337	117.464
779.465	117.680
779.593	118.887
779.721	117.897
779.849	117.825
779.977	117.196
780.105	117.990
780.233	118.959
780.362	117.433
780.490	115.227
780.618	115.907
780.746	117.515
780.874	115.784
781.002	117.515
781.130	117.206
781.258	116.082
781.387	119.155
781.515	116.021
781.643	116.361
781.771	116.206
781.899	116.196
782.027	115.835
782.155	116.062
782.283	115.753
782.412	115.392
782.540	115.856
782.668	113.680
782.796	115.340
782.924	115.680
783.052	112.577
783.180	113.371
783.308	115.371
783.437	115.711
783.565	114.505
783.693	115.082
783.821	117.021
783.949	116.454
784.077	113.897
784.205	114.227
784.333	115.784
784.462	114.206
784.590	117.691
784.718	114.629
784.846	113.289
784.974	113.680
785.102	115.443
785.230	115.485
785.358	113.093
785.487	111.959
785.615	111.412
785.743	112.794
785.871	112.412
785.999	114.680
786.127	114.165
786.255	114.814
786.383	113.258
786.512	116.041
786.640	113.320
786.768	112.639
786.896	112.876
787.024	112.959
787.152	110.629
787.280	112.330
787.408	115.299
787.537	114.412
787.665	111.433
787.793	111.969
787.921	111.588
788.049	111.897
788.177	112.330
788.305	111.845
788.433	111.918
788.562	109.794
788.690	111.206
788.818	110.299
788.946	111.402
789.074	110.804
789.202	111.557
789.330	111.928
789.458	112.052
789.587	112.093
789.715	111.784
789.843	109.340
789.971	110.072
790.099	109.361
790.227	108.691
790.355	110.124
790.483	110.505
790.612	110.979
790.740	110.722
790.868	110.711
790.996	111.371
791.124	111.897
791.252	109.979
791.380	108.784
791.508	108.670
791.637	110.093
791.765	109.742
791.893	108.742
792.021	109.753
792.149	110.515
792.277	109.454
792.405	110.680
792.533	109.443
792.662	109.443
792.790	109.165
792.918	110.959
793.046	108.897
793.174	109.299
793.302	110.247
793.430	109.784
793.558	109.753
793.687	109.866
793.815	109.588
793.943	107.670
794.071	107.299
794.199	107.454
794.327	106.691
794.455	108.062
794.583	108.433
794.712	109.454
794.840	107.351
794.968	107.794
795.096	108.505
795.224	107.691
795.352	107.567
795.480	108.938
795.608	110.402
795.737	109.938
795.865	108.351
795.993	107.495
796.121	106.371
796.249	106.763
796.377	107.340
796.505	107.711
796.633	108.753
796.762	107.598
796.890	109.742
797.018	108.546
797.146	108.175
797.274	106.433
797.402	105.670
797.530	106.546
797.658	106.897
797.787	107.041
797.915	107.835
798.043	109.000
798.171	108.990
798.299	105.557
798.427	106.330
798.555	106.340
798.683	105.351
798.812	105.186
798.940	106.227
799.068	107.691
799.196	106.619
799.324	106.639
799.452	106.928
799.580	106.093
799.708	106.227
799.837	106.577
799.965	105.320
800.093	105.412
800.221	107.402
800.349	107.742
800.477	106.062
800.605	105.784
800.733	106.330
800.862	107.000
800.990	106.206
801.118	105.144
801.246	104.907
801.374	106.155
801.502	106.423
801.630	106.124
801.758	105.629
801.887	105.021
802.015	105.649
802.143	104.443
802.271	105.557
802.399	106.351
802.527	104.536
802.655	104.722
802.783	104.206
802.912	105.866
803.040	105.052
803.168	104.268
803.296	105.423
803.424	104.103
803.552	104.526
803.680	104.577
803.808	104.526
803.937	104.732
804.065	106.216
804.193	104.990
804.321	104.505
804.449	104.041
804.577	103.165
804.705	103.268
804.833	103.093
804.962	104.505
805.090	104.000
805.218	103.381
805.346	104.928
805.474	104.701
805.602	105.237
805.730	103.742
805.858	103.258
805.987	103.876
806.115	103.660
806.243	104.969
806.371	103.381
806.499	105.526
806.627	104.557
806.755	102.670
806.883	103.567
807.012	103.897
807.140	103.825
807.268	102.990
807.396	102.979
807.524	104.753
807.652	103.701
807.780	104.763
807.908	104.196
808.037	102.526
808.165	103.041
808.293	102.155
808.421	102.711
808.549	104.433
808.677	103.557
808.805	102.763
808.933	102.515
809.062	102.010
809.190	102.773
809.318	103.361
809.446	104.072
809.574	102.134
809.702	103.186
809.830	103.072
809.958	102.897
810.087	102.814
810.215	103.897
810.343	102.371
810.471	103.897
810.599	103.536
810.727	104.918
810.855	102.897
810.983	103.134
811.112	102.412
811.240	102.381
811.368	102.629
811.496	103.309
811.624	102.309
811.752	101.320
811.880	101.309
812.008	102.546
812.137	102.113
812.265	101.814
812.393	101.722
812.521	101.629
812.649	102.649
812.777	102.495
812.905	101.330
813.033	103.093
813.162	101.216
813.290	103.320
813.418	102.289
813.546	102.423
813.674	102.299
813.802	101.536
813.930	100.845
814.058	100.918
814.187	102.804
814.315	101.289
814.443	100.794
814.571	101.155
814.699	101.887
814.827	104.010
814.955	103.381
815.083	101.031
815.212	101.299
815.340	100.887
815.468	100.918
815.596	100.845
815.724	100.948
815.852	101.320
815.980	101.773
816.108	101.773
816.237	100.464
816.365	101.433
816.493	101.443
816.621	102.031
816.749	101.299
816.877	100.845
817.005	101.351
817.133	101.485
817.262	102.052
817.390	103.371
817.518	101.351
817.646	99.990
817.774	100.557
817.902	101.381
818.030	101.670
818.158	101.814
818.287	102.835
818.415	100.464
818.543	100.196
818.671	101.691
818.799	100.567
818.927	99.454
819.055	99.639
819.183	101.371
819.312	100.567
819.440	100.268
819.568	101.093
819.696	101.784
819.824	101.887
819.952	100.124
820.080	99.629
820.208	100.454
820.337	100.948
820.465	100.742
820.593	100.876
820.721	100.979
820.849	100.639
820.977	100.247
821.105	101.278
821.233	100.608
821.362	100.536
821.490	100.701
821.618	100.289
821.746	99.701
821.874	99.052
822.002	99.278
822.130	100.464
822.258	100.660
822.387	100.031
822.515	101.320
822.643	100.320
822.771	97.825
822.899	98.969
823.027	100.412
823.155	99.804
823.283	99.928
823.412	99.732
823.540	100.227
823.668	100.196
823.796	98.567
823.924	101.062
824.052	99.082
824.180	99.722
824.308	101.505
824.437	99.680
824.565	100.021
824.693	100.959
824.821	99.052
824.949	100.856
825.077	99.856
825.205	100.010
825.333	100.402
825.462	100.031
825.590	99.660
825.718	98.990
825.846	99.629
825.974	99.825
826.102	100.247
826.230	99.402
826.358	99.680
826.487	99.320
826.615	98.206
826.743	98.443
826.871	100.165
826.999	99.938
827.127	100.340
827.255	99.732
827.383	99.619
827.512	99.557
827.640	100.670
827.768	98.887
827.896	99.206
828.024	99.258
828.152	99.825
828.280	99.979
828.408	100.175
828.537	100.165
828.665	99.474
828.793	98.103
828.921	98.722
829.049	98.093
829.177	99.443
829.305	99.412
829.433	99.144
829.562	97.835
829.690	99.711
829.818	98.660
829.946	99.381
830.074	97.856
830.202	100.237
830.330	98.907
830.458	100.103
830.587	99.928
830.715	100.093
830.843	99.041
830.971	98.629
831.099	98.897
831.227	99.856
831.355	98.433
831.483	99.649
831.612	98.536
831.740	99.412
831.868	99.835
831.996	99.155
832.124	99.495
832.252	98.990
832.380	99.959
832.508	100.021
832.637	99.990
832.765	99.155
832.893	98.474
833.021	98.330
833.149	98.423
833.277	99.969
833.405	100.113
833.533	98.072
833.662	99.165
833.790	98.072
833.918	99.227
834.046	98.876
834.174	100.361
834.302	99.237
834.430	98.289
834.558	101.052
834.687	99.670
834.815	100.361
834.943	98.588
835.071	98.608
835.199	99.247
835.327	98.557
835.455	98.691
835.583	99.711
835.712	99.247
835.840	99.701
835.968	97.711
836.096	98.969
836.224	98.454
836.352	99.814
836.480	99.495
836.608	97.845
836.737	99.588
836.865	99.113
836.993	98.392
837.121	99.309
837.249	98.990
837.377	99.175
837.505	97.433
837.633	97.577
837.762	97.918
837.890	97.309
838.018	97.505
838.146	98.546
838.274	98.392
838.402	97.897
838.530	98.577
838.658	99.186
838.787	96.526
838.915	99.021
839.043	98.753
839.171	97.505
839.299	98.371
839.427	98.897
839.555	99.928
839.683	99.454
839.812	98.753
839.940	98.701
840.068	99.247
840.196	98.897
840.324	98.433
840.452	98.505
840.580	98.567
840.708	98.412
840.837	98.309
840.965	99.082
841.093	98.680
841.221	98.485
841.349	99.979
841.477	99.464
841.605	98.165
841.733	97.629
841.862	100.258
841.990	98.680
842.118	99.134
842.246	96.608
842.374	98.072
842.502	98.515
842.630	98.196
842.758	98.505
842.887	97.835
843.015	99.526
843.143	98.670
843.271	99.412
843.399	99.155
843.527	97.711
843.655	98.330
843.783	98.124
843.912	98.495
844.040	99.588
844.168	98.515
844.296	99.454
844.424	99.526
844.552	99.412
844.680	97.670
844.808	100.649
844.937	99.082
845.065	98.763
845.193	98.021
845.321	97.742
845.449	98.320
845.577	98.052
845.705	98.711
845.833	99.670
845.962	97.979
846.090	98.165
846.218	99.165
846.346	99.330
846.474	97.505
846.602	98.639
846.730	98.433
846.858	98.464
846.987	98.216
847.115	98.619
847.243	98.536
847.371	99.237
847.499	97.794
847.627	98.887
847.755	97.186
847.883	97.031
848.012	97.753
848.140	98.629
848.268	98.155
848.396	98.010
848.524	99.423
848.652	99.330
848.780	97.423
848.908	99.588
849.037	97.938
849.165	98.124
849.293	97.608
849.421	99.062
849.549	98.021
849.677	97.175
849.805	99.732
849.933	98.959
850.062	98.959
850.190	97.876
850.318	97.835
850.446	99.588
850.574	96.856
850.702	98.804
850.830	98.289
850.958	97.082
851.087	99.505
851.215	98.485
851.343	97.464
851.471	97.732
851.599	98.588
851.727	96.979
851.855	98.144
851.983	98.144
852.112	98.753
852.240	99.402
852.368	98.835
852.496	98.216
852.624	97.629
852.752	97.835
852.880	98.206
853.008	96.309
853.137	98.289
853.265	99.588
853.393	99.216
853.521	98.299
853.649	99.433
853.777	98.268
853.905	98.330
854.033	97.196
854.162	98.742
854.290	97.670
854.418	97.794
854.546	96.660
854.674	98.515
854.802	96.598
854.930	97.423
855.058	97.845
855.187	98.381
855.315	97.629
855.443	98.567
855.571	97.990
855.699	98.948
855.827	97.515
855.955	97.629
856.083	98.588
856.212	98.052
856.340	98.340
856.468	97.814
856.596	97.619
856.724	98.144
856.852	98.227
856.980	97.701
857.108	98.052
857.237	98.392
857.365	98.144
857.493	98.041
857.621	97.598
857.749	97.608
857.877	97.629
858.005	98.495
858.133	95.887
858.262	98.206
858.390	98.814
858.518	96.948
858.646	98.742
858.774	99.485
858.902	97.577
859.030	97.433
859.158	97.351
859.287	98.340
859.415	98.000
859.543	97.753
859.671	98.866
859.799	97.629
859.927	97.835
860.055	98.959
860.183	97.701
860.312	97.485
860.440	97.660
860.568	98.392
860.696	97.794
860.824	98.299
860.952	98.948
861.080	98.124
861.208	98.649
861.337	98.371
861.465	97.041
861.593	99.021
861.721	98.691
861.849	97.010
861.977	97.598
862.105	97.825
862.233	97.557
862.362	98.474
862.490	98.227
862.618	98.031
862.746	98.402
862.874	99.010
863.002	97.206
863.130	98.371
863.258	98.639
863.387	97.979
863.515	97.918
863.643	97.515
863.771	98.082
863.899	97.732
864.027	99.608
864.155	98.588
864.283	95.969
864.412	99.402
864.540	99.052
864.668	97.660
864.796	98.928
864.924	98.794
865.052	98.680
865.180	98.907
865.308	98.206
865.437	97.082
865.565	97.918
865.693	98.371
865.821	97.505
865.949	98.639
866.077	100.423
866.205	97.433
866.333	97.320
866.462	97.278
866.590	98.485
866.718	98.794
866.846	99.082
866.974	98.742
867.102	98.062
867.230	97.340
867.358	97.856
867.487	97.907
867.615	97.134
867.743	98.515
867.871	98.649
867.999	98.052
868.127	97.278
868.255	98.134
868.383	99.794
868.512	98.990
868.640	98.072
868.768	99.103
868.896	98.000
869.024	98.392
869.152	97.732
869.280	98.918
869.408	99.567
869.537	99.134
869.665	98.247
869.793	97.691
869.921	98.938
870.049	99.505
870.177	98.381
870.305	99.794
870.433	99.423
870.562	99.608
870.690	97.701
870.818	98.794
870.946	98.670
871.074	98.258
871.202	98.732
871.330	99.443
871.458	99.536
871.587	99.041
871.715	98.072
871.843	98.598
871.971	99.299
872.099	96.753
872.227	98.536
872.355	98.701
872.483	98.351
872.612	98.722
872.740	96.227
872.868	98.742
872.996	98.402
873.124	98.423
873.252	99.546
873.380	99.361
873.508	98.794
873.637	99.629
873.765	98.742
873.893	98.948
874.021	99.124
874.149	99.392
874.277	99.010
874.405	99.113
874.533	99.907
874.662	97.938
874.790	98.320
874.918	98.196
875.046	97.856
875.174	98.412
875.302	98.515
875.430	98.093
875.558	98.165
875.687	99.206
875.815	98.784
875.943	98.443
876.071	98.557
876.199	99.278
876.327	98.887
876.455	99.031
876.583	98.990
876.712	99.474
876.840	98.330
876.968	98.856
877.096	99.608
877.224	98.742
877.352	97.763
877.480	97.845
877.608	98.464
877.737	97.938
877.865	97.814
877.993	97.247
878.121	98.567
878.249	99.845
878.377	98.443
878.505	97.155
878.633	98.423
878.762	100.402
878.890	97.928
879.018	98.052
879.146	99.268
879.274	98.567
879.402	99.742
879.530	98.309
879.658	98.969
879.787	97.825
879.915	98.598
880.043	98.938
880.171	98.351
880.299	98.175
880.427	98.619
880.555	98.268
880.683	98.701
880.812	99.371
880.940	98.299
881.068	98.907
881.196	98.247
881.324	99.165
881.452	98.443
881.580	98.732
881.708	99.495
881.837	99.897
881.965	97.701
882.093	98.381
882.221	98.742
882.349	98.031
882.477	99.887
882.605	100.021
882.733	99.052
882.862	99.660
882.990	99.052
883.118	98.722
883.246	99.165
883.374	99.093
883.502	97.835
883.630	100.474
883.758	99.052
883.887	98.381
884.015	99.454
884.143	100.134
884.271	98.825
884.399	97.268
884.527	98.351
884.655	99.052
884.783	100.278
884.912	99.175
885.040	98.979
885.168	98.619
885.296	99.031
885.424	98.845
885.552	99.351
885.680	98.402
885.808	98.639
885.937	99.876
886.065	98.649
886.193	98.247
886.321	99.021
886.449	98.876
886.577	98.907
886.705	99.289
886.833	99.186
886.962	100.010
887.090	97.866
887.218	98.247
887.346	97.794
887.474	99.165
887.602	99.299
887.730	97.031
887.858	98.691
887.987	98.124
888.115	98.856
888.243	100.155
888.371	101.196
888.499	100.722
888.627	98.392
888.755	99.165
888.883	99.619
889.012	98.196
889.140	98.000
889.268	98.041
889.396	98.536
889.524	98.619
889.652	98.969
889.780	99.680
889.908	99.227
890.037	98.856
890.165	98.557
890.293	99.402
890.421	99.474
890.549	98.918
890.677	97.742
890.805	99.309
890.933	99.515
891.062	99.670
891.190	99.206
891.318	100.485
891.446	99.278
891.574	97.907
891.702	97.010
891.830	98.495
891.958	97.742
892.087	99.443
892.215	99.680
892.343	99.691
892.471	98.742
892.599	99.845
892.727	99.526
892.855	100.299
892.983	99.845
893.112	99.309
893.240	99.763
893.368	99.072
893.496	99.423
893.624	99.763
893.752	101.041
893.880	99.938
894.008	99.330
894.137	99.990
894.265	99.979
894.393	99.649
894.521	99.052
894.649	99.784
894.777	98.567
894.905	98.722
895.033	100.938
895.162	99.784
895.290	99.588
895.418	100.237
895.546	100.082
895.674	98.897
895.802	99.103
895.930	98.856
896.058	98.381
896.187	99.093
896.315	101.237
896.443	99.629
896.571	100.392
896.699	100.464
896.827	99.505
896.955	99.268
897.083	100.495
897.212	100.711
897.340	99.959
897.468	98.701
897.596	98.505
897.724	98.402
897.852	99.938
897.980	98.536
898.108	98.351
898.237	97.918
898.365	99.062
898.493	100.907
898.621	99.340
898.749	98.557
898.877	99.588
899.005	100.258
899.133	99.701
899.262	99.918
899.390	98.814
899.518	99.959
899.646	99.732
899.774	99.804
899.902	99.258
900.030	100.072
900.158	98.021
900.287	98.969
900.415	99.649
900.543	99.938
900.671	99.887
900.799	99.247
900.927	98.598
901.055	98.959
901.183	99.835
901.312	100.062
901.440	100.639
901.568	100.155
901.696	99.392
901.824	99.825
901.952	100.897
902.080	98.969
902.208	98.948
902.337	99.454
902.465	99.515
902.593	100.124
902.721	99.948
902.849	99.887
902.977	100.227
903.105	100.629
903.233	99.835
903.362	99.938
903.490	98.742
903.618	98.454
903.746	99.577
903.874	100.299
904.002	100.289
904.130	99.773
904.258	99.381
904.387	99.670
904.515	99.825
904.643	101.309
904.771	101.577
904.899	99.845
905.027	99.619
905.155	99.216
905.283	101.454
905.412	100.134
905.540	99.887
905.668	97.835
905.796	98.186
905.924	101.155
906.052	99.897
906.180	100.082
906.308	98.227
906.437	98.742
906.565	100.804
906.693	99.093
906.821	96.660
906.949	99.887
907.077	98.680
907.205	100.773
907.333	100.381
907.462	101.753
907.590	100.464
907.718	99.938
907.846	100.557
907.974	101.742
908.102	101.144
908.230	98.814
908.358	98.381
908.487	98.907
908.615	99.876
908.743	100.784
908.871	101.691
908.999	100.938
909.127	99.227
909.255	99.515
909.383	98.289
909.512	101.021
909.640	100.825
909.768	100.990
909.896	102.134
910.024	100.660
910.152	101.258
910.280	99.959
910.408	100.928
910.537	101.433
910.665	100.763
910.793	100.423
910.921	98.928
911.049	100.412
911.177	99.938
911.305	100.505
911.433	101.412
911.562	100.206
911.690	101.784
911.818	100.247
911.946	100.258
912.074	100.711
912.202	99.907
912.330	99.691
912.458	101.485
912.587	100.536
912.715	100.567
912.843	100.165
912.971	101.691
913.099	100.505
913.227	101.278
913.355	101.000
913.483	100.062
913.612	100.649
913.740	100.918
913.868	99.732
