70_110_wo_Pol_at_750.00nm_cut_at_1179.00Y_01.dat
03.07.2023
11:10:12
cut middle at Y: 1179.00
top cursor: 1231 down cursor: 1127 mean of: 104 lines , 2560 datapoints
wavelength(nm)	intensity[arb. units]
585.996	23588.875
586.124	23244.702
586.252	23194.808
586.380	23247.615
586.508	23328.971
586.637	23441.683
586.765	23445.663
586.893	23510.010
587.021	23555.529
587.149	23598.260
587.277	23716.875
587.405	23677.490
587.533	23800.788
587.662	23819.596
587.790	23822.577
587.918	23797.587
588.046	23796.096
588.174	23894.750
588.302	23930.558
588.430	23930.606
588.558	23943.510
588.687	23966.202
588.815	23958.154
588.943	23957.010
589.071	23962.904
589.199	24014.288
589.327	23991.923
589.455	24037.837
589.583	23978.212
589.712	24024.096
589.840	23953.154
589.968	23986.067
590.096	24025.779
590.224	24078.202
590.352	24148.644
590.480	24032.913
590.608	24014.096
590.737	24050.308
590.865	24099.885
590.993	23996.702
591.121	24036.519
591.249	24055.817
591.377	24059.558
591.505	24134.260
591.633	24110.990
591.762	24111.548
591.890	24131.654
592.018	24230.798
592.146	24146.221
592.274	24167.712
592.402	24176.615
592.530	24425.173
592.658	24300.567
592.787	24338.788
592.915	24411.760
593.043	24355.808
593.171	24400.346
593.299	24371.135
593.427	24409.894
593.555	24472.981
593.683	24542.462
593.812	24494.356
593.940	24590.010
594.068	24593.452
594.196	24654.183
594.324	24739.731
594.452	24955.538
594.580	24856.500
594.708	24997.442
594.837	24991.346
594.965	25115.788
595.093	25115.327
595.221	25242.856
595.349	25220.058
595.477	25265.462
595.605	25356.577
595.733	25403.663
595.862	25441.827
595.990	25396.279
596.118	25498.683
596.246	25608.308
596.374	25543.904
596.502	25636.712
596.630	25657.808
596.758	25666.644
596.887	25775.067
597.015	25745.010
597.143	25793.817
597.271	25798.067
597.399	25971.481
597.527	25873.433
597.655	25930.096
597.783	25949.952
597.912	25928.163
598.040	25990.317
598.168	25973.654
598.296	25895.481
598.424	26095.356
598.552	25937.875
598.680	25992.673
598.808	26095.952
598.937	26022.981
599.065	26005.106
599.193	26081.462
599.321	26067.288
599.449	25996.260
599.577	25988.365
599.705	25993.923
599.833	25977.769
599.962	25935.663
600.090	25981.962
600.218	25927.894
600.346	25961.673
600.474	25972.692
600.602	25985.692
600.730	26014.462
600.858	26057.865
600.987	26152.471
601.115	25982.500
601.243	26108.712
601.371	26184.019
601.499	26145.702
601.627	26237.279
601.755	26247.702
601.883	26237.913
602.012	26204.981
602.140	26262.490
602.268	26303.933
602.396	26424.048
602.524	26477.346
602.652	26606.923
602.780	26597.173
602.908	26655.558
603.037	26747.154
603.165	26803.808
603.293	26871.106
603.421	26947.952
603.549	26994.433
603.677	27062.587
603.805	27144.548
603.933	27266.673
604.062	27420.933
604.190	27552.837
604.318	27522.202
604.446	27566.683
604.574	27727.904
604.702	27721.260
604.830	27816.952
604.958	27901.394
605.087	28013.106
605.215	28158.702
605.343	28260.452
605.471	28319.048
605.599	28345.135
605.727	28544.981
605.855	28627.212
605.983	28654.269
606.112	28705.000
606.240	28762.010
606.368	28803.010
606.496	28873.856
606.624	28962.288
606.752	28952.731
606.880	29062.577
607.008	29072.577
607.137	29136.942
607.265	29253.058
607.393	29223.481
607.521	29314.712
607.649	29316.577
607.777	29261.192
607.905	29301.923
608.033	29324.654
608.162	29298.663
608.290	29320.740
608.418	29462.596
608.546	29435.471
608.674	29492.971
608.802	29375.269
608.930	29420.058
609.058	29418.702
609.187	29446.683
609.315	29434.865
609.443	29374.750
609.571	29501.981
609.699	29394.346
609.827	29435.817
609.955	29411.654
610.083	29384.096
610.212	29374.000
610.340	29302.433
610.468	29340.990
610.596	29344.144
610.724	29356.865
610.852	29393.538
610.980	29388.346
611.108	29396.587
611.237	29432.885
611.365	29428.183
611.493	29433.385
611.621	29433.635
611.749	29453.010
611.877	29500.788
612.005	29557.779
612.133	29586.038
612.262	29602.077
612.390	29701.808
612.518	29749.644
612.646	29751.029
612.774	29873.577
612.902	29870.337
613.030	29963.865
613.158	29875.971
613.287	29990.327
613.415	29968.875
613.543	30063.221
613.671	30093.154
613.799	30171.865
613.927	30229.163
614.055	30383.404
614.183	30378.798
614.312	30405.423
614.440	30633.500
614.568	30548.163
614.696	30712.038
614.824	30782.808
614.952	30840.250
615.080	30900.144
615.208	31029.837
615.337	31107.317
615.465	31088.904
615.593	31277.962
615.721	31200.817
615.849	31411.788
615.977	31450.740
616.105	31444.894
616.233	31600.635
616.362	31719.481
616.490	31732.606
616.618	31853.865
616.746	32017.721
616.874	31992.125
617.002	32054.567
617.130	32083.644
617.258	32145.971
617.387	32299.837
617.515	32267.971
617.643	32270.365
617.771	32343.173
617.899	32393.942
618.027	32486.615
618.155	32528.048
618.283	32523.029
618.412	32674.913
618.540	32752.442
618.668	32722.202
618.796	32791.923
618.924	32732.817
619.052	32779.712
619.180	32790.981
619.308	32789.231
619.437	32814.212
619.565	32796.740
619.693	32851.462
619.821	32883.106
619.949	32860.019
620.077	32939.875
620.205	33023.731
620.333	33038.894
620.462	33017.702
620.590	33029.846
620.718	33127.279
620.846	33119.971
620.974	33118.538
621.102	33172.894
621.230	33106.019
621.358	33291.106
621.487	33173.683
621.615	33211.240
621.743	33135.538
621.871	33225.385
621.999	33174.183
622.127	33211.010
622.255	33158.010
622.383	33147.038
622.512	33184.115
622.640	33164.962
622.768	33283.673
622.896	33281.587
623.024	33297.654
623.152	33319.510
623.280	33377.837
623.408	33321.173
623.537	33393.298
623.665	33354.010
623.793	33410.625
623.921	33387.404
624.049	33457.067
624.177	33424.625
624.305	33414.606
624.433	33459.067
624.562	33444.885
624.690	33538.731
624.818	33368.750
624.946	33391.404
625.074	33427.625
625.202	33440.356
625.330	33463.298
625.458	33569.125
625.587	33514.010
625.715	33630.356
625.843	33517.635
625.971	33617.548
626.099	33637.423
626.227	33711.269
626.355	33651.202
626.483	33714.260
626.612	33734.885
626.740	33823.010
626.868	33853.192
626.996	33881.731
627.124	33793.933
627.252	33851.567
627.380	33934.596
627.508	33916.913
627.637	33980.923
627.765	34150.106
627.893	34116.875
628.021	34139.096
628.149	34120.135
628.277	34216.154
628.405	34248.981
628.533	34237.596
628.662	34274.250
628.790	34462.163
628.918	34407.827
629.046	34615.644
629.174	34516.375
629.302	34546.885
629.430	34613.904
629.558	34725.173
629.687	34714.577
629.815	34830.529
629.943	34986.250
630.071	34971.615
630.199	35023.067
630.327	35126.962
630.455	35131.558
630.583	35185.644
630.712	35238.760
630.840	35306.625
630.968	35333.779
631.096	35455.721
631.224	35476.942
631.352	35639.529
631.480	35606.038
631.608	35830.577
631.737	35636.587
631.865	35792.048
631.993	35857.067
632.121	36004.990
632.249	35934.096
632.377	35912.923
632.505	36014.365
632.633	36163.635
632.762	36020.519
632.890	36099.692
633.018	36038.596
633.146	36137.663
633.274	36071.202
633.402	36190.538
633.530	36192.769
633.658	36168.452
633.787	36220.346
633.915	36249.202
634.043	36293.375
634.171	36316.971
634.299	36318.529
634.427	36300.798
634.555	36509.452
634.683	36326.404
634.812	36303.750
634.940	36294.971
635.068	36287.240
635.196	36251.029
635.324	36306.894
635.452	36245.538
635.580	36347.837
635.708	36246.000
635.837	36240.423
635.965	36213.067
636.093	36144.885
636.221	36055.423
636.349	36036.548
636.477	36031.087
636.605	36067.346
636.733	36053.298
636.862	35956.240
636.990	35926.856
637.118	35883.548
637.246	35840.019
637.374	35939.337
637.502	35717.365
637.630	35718.606
637.758	35705.212
637.887	35610.048
638.015	35804.462
638.143	35593.010
638.271	35515.827
638.399	35533.577
638.527	35509.058
638.655	35450.933
638.783	35462.038
638.912	35491.288
639.040	35334.837
639.168	35329.173
639.296	35367.029
639.424	35335.260
639.552	35267.913
639.680	35301.808
639.808	35244.548
639.937	35212.817
640.065	35236.423
640.193	35245.173
640.321	35343.856
640.449	35295.875
640.577	35282.644
640.705	35288.327
640.833	35260.269
640.962	35346.760
641.090	35253.942
641.218	35230.856
641.346	35369.923
641.474	35327.990
641.602	35357.923
641.730	35336.250
641.858	35355.663
641.987	35283.875
642.115	35545.375
642.243	35385.904
642.371	35540.260
642.499	35380.808
642.627	35431.981
642.755	35493.933
642.883	35475.846
643.012	35498.413
643.140	35547.135
643.268	35539.712
643.396	35543.029
643.524	35575.779
643.652	35680.058
643.780	35618.587
643.908	35613.856
644.037	35767.135
644.165	35745.385
644.293	35839.923
644.421	35679.404
644.549	35737.750
644.677	35767.692
644.805	35733.096
644.933	35748.817
645.062	35861.202
645.190	35975.837
645.318	35854.308
645.446	35806.067
645.574	35910.865
645.702	35801.990
645.830	35816.808
645.958	35836.048
646.087	35839.404
646.215	35772.529
646.343	35841.740
646.471	35994.019
646.599	35875.279
646.727	35830.673
646.855	35811.144
646.983	35768.962
647.112	35875.375
647.240	35840.471
647.368	35830.337
647.496	35834.913
647.624	35781.654
647.752	35797.692
647.880	35799.250
648.008	35788.346
648.137	35784.000
648.265	35746.942
648.393	35805.202
648.521	35695.952
648.649	35865.413
648.777	35699.779
648.905	35611.933
649.033	35666.500
649.162	35529.288
649.290	35431.663
649.418	35482.212
649.546	35569.577
649.674	35493.212
649.802	35399.375
649.930	35240.577
650.058	35230.644
650.187	35269.462
650.315	35180.702
650.443	35173.048
650.571	35039.760
650.699	35026.221
650.827	34993.933
650.955	34919.240
651.083	34912.779
651.212	34802.298
651.340	34803.779
651.468	34783.981
651.596	34742.558
651.724	34756.365
651.852	34677.269
651.980	34627.981
652.108	34488.240
652.237	34552.548
652.365	34408.125
652.493	34448.808
652.621	34331.365
652.749	34349.260
652.877	34335.452
653.005	34318.404
653.133	34252.942
653.262	34163.356
653.390	34033.471
653.518	34197.654
653.646	33999.183
653.774	33942.952
653.902	33977.192
654.030	33928.500
654.158	33852.279
654.287	33857.712
654.415	33759.750
654.543	33810.654
654.671	33709.538
654.799	33702.846
654.927	33607.923
655.055	33591.462
655.183	33546.779
655.312	33505.308
655.440	33479.865
655.568	33433.490
655.696	33404.077
655.824	33380.000
655.952	33338.837
656.080	33162.106
656.208	33202.106
656.337	33210.500
656.465	33370.865
656.593	33179.163
656.721	33091.673
656.849	33084.375
656.977	32842.587
657.105	32890.712
657.233	32897.788
657.362	32888.942
657.490	32831.279
657.618	32795.827
657.746	32728.971
657.874	32523.433
658.002	32445.817
658.130	32400.260
658.258	32331.740
658.387	32276.212
658.515	32230.577
658.643	32207.269
658.771	32284.702
658.899	32139.971
659.027	32119.577
659.155	32087.625
659.283	31919.904
659.412	31929.260
659.540	31928.433
659.668	31905.279
659.796	31942.952
659.924	31948.173
660.052	31987.721
660.180	31858.577
660.308	31940.510
660.437	31889.760
660.565	31744.798
660.693	31561.375
660.821	31691.317
660.949	31469.115
661.077	31482.625
661.205	31644.202
661.333	31438.529
661.462	31333.740
661.590	31351.971
661.718	31298.933
661.846	31297.885
661.974	31238.933
662.102	31127.471
662.230	31077.740
662.358	30998.192
662.487	31025.404
662.615	30931.298
662.743	30950.885
662.871	30930.500
662.999	30868.087
663.127	30763.452
663.255	30660.010
663.383	30787.269
663.512	30617.096
663.640	30588.317
663.768	30633.913
663.896	30539.019
664.024	30524.712
664.152	30449.760
664.280	30513.087
664.408	30377.683
664.537	30356.260
664.665	30320.279
664.793	30270.077
664.921	30240.077
665.049	30270.183
665.177	30158.529
665.305	30158.529
665.433	30163.452
665.562	30221.240
665.690	30042.183
665.818	30188.058
665.946	29954.740
666.074	29924.952
666.202	29907.173
666.330	29834.942
666.458	29988.173
666.587	29763.337
666.715	29762.106
666.843	29649.231
666.971	29643.077
667.099	29643.404
667.227	29643.298
667.355	29609.606
667.483	29509.538
667.612	29555.010
667.740	29472.356
667.868	29402.798
667.996	29402.837
668.124	29391.942
668.252	29442.663
668.380	29238.731
668.508	29316.894
668.637	29140.442
668.765	29204.135
668.893	29038.538
669.021	28983.125
669.149	29036.183
669.277	28880.817
669.405	28995.942
669.533	28907.798
669.662	28832.048
669.790	28776.712
669.918	28747.740
670.046	28810.423
670.174	28617.596
670.302	28511.644
670.430	28484.433
670.558	28540.231
670.687	28537.558
670.815	28297.644
670.943	28300.413
671.071	28201.817
671.199	28101.269
671.327	28119.375
671.455	28088.135
671.583	28064.894
671.712	27903.837
671.840	27970.490
671.968	27994.413
672.096	27943.212
672.224	27709.452
672.352	27669.048
672.480	27523.212
672.608	27539.038
672.737	27418.865
672.865	27385.231
672.993	27303.067
673.121	27247.298
673.249	27184.202
673.377	27131.760
673.505	27031.385
673.633	27024.154
673.762	26923.510
673.890	26867.183
674.018	26881.288
674.146	26722.337
674.274	26669.990
674.402	26672.817
674.530	26552.587
674.658	26486.885
674.787	26395.125
674.915	26424.856
675.043	26275.423
675.171	26196.394
675.299	26096.846
675.427	26016.471
675.555	26035.433
675.683	25932.500
675.812	25839.413
675.940	25753.433
676.068	25645.663
676.196	25660.971
676.324	25530.654
676.452	25438.096
676.580	25364.365
676.708	25336.750
676.837	25229.692
676.965	25274.154
677.093	25322.173
677.221	25087.769
677.349	24948.115
677.477	24966.673
677.605	24825.394
677.733	24756.452
677.862	24681.875
677.990	24686.481
678.118	24624.500
678.246	24564.750
678.374	24528.865
678.502	24344.990
678.630	24256.971
678.758	24241.279
678.887	24312.250
679.015	24029.212
679.143	24000.356
679.271	23959.442
679.399	23904.962
679.527	23926.356
679.655	23854.010
679.783	23723.298
679.912	23668.567
680.040	23759.154
680.168	23543.019
680.296	23495.462
680.424	23450.346
680.552	23346.173
680.680	23313.894
680.808	23216.308
680.937	23200.913
681.065	23209.058
681.193	23081.433
681.321	22974.240
681.449	22993.337
681.577	22934.442
681.705	22914.481
681.833	22832.462
681.962	22798.587
682.090	22765.058
682.218	22644.596
682.346	22672.173
682.474	22535.029
682.602	22494.663
682.730	22530.202
682.858	22431.500
682.987	22370.558
683.115	22355.048
683.243	22292.212
683.371	22248.750
683.499	22192.827
683.627	22218.587
683.755	22086.212
683.883	22080.587
684.012	22039.673
684.140	22010.077
684.268	21952.962
684.396	21970.817
684.524	21866.750
684.652	21841.587
684.780	21825.952
684.908	21739.010
685.037	21785.952
685.165	21665.212
685.293	21703.971
685.421	21650.346
685.549	21599.692
685.677	21511.913
685.805	21484.990
685.933	21400.394
686.062	21421.260
686.190	21347.712
686.318	21269.231
686.446	21229.077
686.574	21171.721
686.702	21180.750
686.830	21103.846
686.958	21135.654
687.087	20998.683
687.215	20965.913
687.343	20944.144
687.471	21048.394
687.599	20770.875
687.727	20788.269
687.855	20704.913
687.983	20639.750
688.112	20688.750
688.240	20610.058
688.368	20585.462
688.496	20483.269
688.624	20395.144
688.752	20543.183
688.880	20324.577
689.008	20284.490
689.137	20262.231
689.265	20213.817
689.393	20139.423
689.521	20111.692
689.649	20180.567
689.777	20043.702
689.905	20062.308
690.033	19901.135
690.162	19856.471
690.290	19897.337
690.418	19752.962
690.546	19763.654
690.674	19697.413
690.802	19675.644
690.930	19611.019
691.058	19582.625
691.187	19481.817
691.315	19407.769
691.443	19398.269
691.571	19357.817
691.699	19281.558
691.827	19196.577
691.955	19161.808
692.083	19152.558
692.212	19093.452
692.340	19028.385
692.468	19066.231
692.596	18967.894
692.724	18866.692
692.852	18865.423
692.980	18809.221
693.108	18813.125
693.237	18685.135
693.365	18631.471
693.493	18574.298
693.621	18502.779
693.749	18436.962
693.877	18435.875
694.005	18272.337
694.133	18214.385
694.262	18242.365
694.390	18110.375
694.518	18048.048
694.646	18054.606
694.774	17958.981
694.902	17896.740
695.030	17874.163
695.158	17751.760
695.287	17695.413
695.415	17692.250
695.543	17628.760
695.671	17532.606
695.799	17625.529
695.927	17469.279
696.055	17446.952
696.183	17309.817
696.312	17474.913
696.440	17294.808
696.568	17285.567
696.696	17100.356
696.824	17014.798
696.952	16971.423
697.080	16959.683
697.208	16862.750
697.337	16823.317
697.465	16759.548
697.593	16688.702
697.721	16748.942
697.849	16603.673
697.977	16627.760
698.105	16576.683
698.233	16507.856
698.362	16404.837
698.490	16490.413
698.618	16300.260
698.746	16231.471
698.874	16225.721
699.002	16177.337
699.130	16136.212
699.258	16017.933
699.387	15982.769
699.515	15972.606
699.643	15963.654
699.771	15981.567
699.899	15794.481
700.027	15728.663
700.155	15755.510
700.283	15608.221
700.412	15608.538
700.540	15619.423
700.668	15573.923
700.796	15454.375
700.924	15408.452
701.052	15394.240
701.180	15349.010
701.308	15241.433
701.437	15201.558
701.565	15184.173
701.693	15168.423
701.821	15287.673
701.949	15011.731
702.077	15003.471
702.205	15036.846
702.333	14886.615
702.462	14810.279
702.590	14802.962
702.718	14704.577
702.846	14852.096
702.974	14632.125
703.102	14569.596
703.230	14576.962
703.358	14471.202
703.487	14450.125
703.615	14370.221
703.743	14328.817
703.871	14278.942
703.999	14235.683
704.127	14149.385
704.255	14086.750
704.383	14111.635
704.512	14093.298
704.640	14046.000
704.768	14018.087
704.896	13844.269
705.024	13803.394
705.152	13778.827
705.280	13764.096
705.408	13621.067
705.537	13550.692
705.665	13574.952
705.793	13518.115
705.921	13476.606
706.049	13371.154
706.177	13369.577
706.305	13306.846
706.433	13278.827
706.562	13238.538
706.690	13195.221
706.818	13137.731
706.946	13010.250
707.074	12997.048
707.202	12922.231
707.330	12908.298
707.458	12855.683
707.587	12795.077
707.715	12782.125
707.843	12763.702
707.971	12725.019
708.099	12627.692
708.227	12561.615
708.355	12516.279
708.483	12473.433
708.612	12463.000
708.740	12382.308
708.868	12347.481
708.996	12381.442
709.124	12286.548
709.252	12247.837
709.380	12227.875
709.508	12166.846
709.637	12163.308
709.765	12081.721
709.893	12101.385
710.021	11996.192
710.149	12043.904
710.277	11884.000
710.405	11887.683
710.533	11848.183
710.662	11802.500
710.790	11896.779
710.918	11719.769
711.046	11676.692
711.174	11672.337
711.302	11682.087
711.430	11599.856
711.558	11573.885
711.687	11542.038
711.815	11473.577
711.943	11398.279
712.071	11360.317
712.199	11417.750
712.327	11390.279
712.455	11272.144
712.583	11438.731
712.712	11276.808
712.840	11267.692
712.968	11157.875
713.096	11089.923
713.224	11103.827
713.352	11053.846
713.480	11003.654
713.608	10945.731
713.737	10923.827
713.865	10934.106
713.993	10872.654
714.121	10873.933
714.249	10774.721
714.377	10756.615
714.505	10724.779
714.633	10719.385
714.762	10639.019
714.890	10638.933
715.018	10584.288
715.146	10598.163
715.274	10507.308
715.402	10512.279
715.530	10475.096
715.658	10491.692
715.787	10428.298
715.915	10485.163
716.043	10366.269
716.171	10476.308
716.299	10276.865
716.427	10316.587
716.555	10223.202
716.683	10197.788
716.812	10156.000
716.940	10133.288
717.068	10048.471
717.196	10235.240
717.324	10067.269
717.452	9999.231
717.580	10020.135
717.708	9903.721
717.837	9917.731
717.965	9911.404
718.093	9851.471
718.221	9835.163
718.349	9875.529
718.477	9757.212
718.605	9825.673
718.733	9722.663
718.862	9744.404
718.990	9618.202
719.118	9661.481
719.246	9574.750
719.374	9528.740
719.502	9557.933
719.630	9634.000
719.758	9428.106
719.887	9411.760
720.015	9419.750
720.143	9407.673
720.271	9284.596
720.399	9346.875
720.527	9254.865
720.655	9298.904
720.783	9185.260
720.912	9112.327
721.040	9141.885
721.168	9112.365
721.296	9019.125
721.424	9003.740
721.552	8996.067
721.680	9031.356
721.808	8963.240
721.937	8909.481
722.065	8926.260
722.193	8850.913
722.321	8793.952
722.449	8796.163
722.577	8719.913
722.705	8726.413
722.833	8691.125
722.962	8683.990
723.090	8632.538
723.218	8585.385
723.346	8615.212
723.474	8505.904
723.602	8459.702
723.730	8430.933
723.858	8428.327
723.987	8415.933
724.115	8369.913
724.243	8359.577
724.371	8302.212
724.499	8276.346
724.627	8235.894
724.755	8212.010
724.883	8296.615
725.012	8325.337
725.140	8137.317
725.268	8064.404
725.396	8137.567
725.524	8161.481
725.652	7995.288
725.780	8055.125
725.908	7928.404
726.037	7890.029
726.165	7856.769
726.293	7827.769
726.421	7822.577
726.549	7807.933
726.677	7782.846
726.805	7719.971
726.933	7703.317
727.062	7662.077
727.190	7604.221
727.318	7562.644
727.446	7562.125
727.574	7495.144
727.702	7475.240
727.830	7511.692
727.958	7453.548
728.087	7479.558
728.215	7504.029
728.343	7360.394
728.471	7362.048
728.599	7463.702
728.727	7263.337
728.855	7273.702
728.983	7212.962
729.112	7214.894
729.240	7193.885
729.368	7147.240
729.496	7139.298
729.624	7122.606
729.752	7065.788
729.880	7053.913
730.008	7004.183
730.137	7014.433
730.265	6956.635
730.393	7132.635
730.521	7037.635
730.649	6854.221
730.777	6787.202
730.905	6801.913
731.033	6748.154
731.162	6867.260
731.290	6816.548
731.418	6716.096
731.546	6690.942
731.674	6701.433
731.802	6616.760
731.930	6698.192
732.058	6721.260
732.187	6595.452
732.315	6582.279
732.443	6682.154
732.571	6563.702
732.699	6551.500
732.827	6562.192
732.955	6480.529
733.083	6446.875
733.212	6441.875
733.340	6385.192
733.468	6376.029
733.596	6361.442
733.724	6316.279
733.852	6351.000
733.980	6335.875
734.108	6462.471
734.237	6279.875
734.365	6266.865
734.493	6237.808
734.621	6183.760
734.749	6176.740
734.877	6174.865
735.005	6176.625
735.133	6111.760
735.262	6221.962
735.390	6086.077
735.518	6086.500
735.646	6144.163
735.774	6106.423
735.902	6082.433
736.030	6003.154
736.158	5979.038
736.287	5999.144
736.415	5970.365
736.543	5932.048
736.671	5872.490
736.799	5924.337
736.927	5888.577
737.055	5942.625
737.183	5821.327
737.312	5828.913
737.440	5796.183
737.568	5864.558
737.696	5835.913
737.824	5751.192
737.952	5973.904
738.080	5708.990
738.208	5766.260
738.337	5694.413
738.465	5681.173
738.593	5667.923
738.721	5620.231
738.849	5665.365
738.977	5593.933
739.105	5579.356
739.233	5587.538
739.362	5526.413
739.490	5507.212
739.618	5547.269
739.746	5501.779
739.874	5459.231
740.002	5458.683
740.130	5446.048
740.258	5374.077
740.387	5433.913
740.515	5379.240
740.643	5374.317
740.771	5410.154
740.899	5305.413
741.027	5295.885
741.155	5241.644
741.283	5236.654
741.412	5343.067
741.540	5262.433
741.668	5214.500
741.796	5262.077
741.924	5139.490
742.052	5251.375
742.180	5145.990
742.308	5083.750
742.437	5104.615
742.565	5074.913
742.693	5136.760
742.821	5023.962
742.949	4987.048
743.077	5019.942
743.205	4913.163
743.333	4957.875
743.462	4965.048
743.590	4894.856
743.718	4912.462
743.846	4860.904
743.974	4900.500
744.102	4823.558
744.230	4868.327
744.358	4799.692
744.487	4785.423
744.615	4763.750
744.743	4740.721
744.871	4726.183
744.999	4760.942
745.127	4670.192
745.255	4631.404
745.383	4685.779
745.512	4620.385
745.640	4588.048
745.768	4574.577
745.896	4642.567
746.024	4590.019
746.152	4521.260
746.280	4562.721
746.408	4503.673
746.537	4542.837
746.665	4464.260
746.793	4438.433
746.921	4419.615
747.049	4424.962
747.177	4378.260
747.305	4535.885
747.433	4360.163
747.562	4333.750
747.690	4357.442
747.818	4373.212
747.946	4288.885
748.074	4252.558
748.202	4249.615
748.330	4227.942
748.458	4214.048
748.587	4178.837
748.715	4261.635
748.843	4147.010
748.971	4129.433
749.099	4138.712
749.227	4111.692
749.355	4128.308
749.483	4050.702
749.612	4109.212
749.740	4057.529
749.868	4027.933
749.996	4084.269
750.124	4059.163
750.252	3997.442
750.380	3981.923
750.508	3952.962
750.637	3898.173
750.765	4037.558
750.893	3896.192
751.021	3820.567
751.149	3867.183
751.277	3871.913
751.405	3833.067
751.533	3812.846
751.662	3770.240
751.790	3930.510
751.918	3766.596
752.046	3720.163
752.174	3750.952
752.302	3718.365
752.430	3680.990
752.558	3681.904
752.687	3651.596
752.815	3695.260
752.943	3608.202
753.071	3599.404
753.199	3579.212
753.327	3584.538
753.455	3519.962
753.583	3607.019
753.712	3543.894
753.840	3526.346
753.968	3521.260
754.096	3464.577
754.224	3467.740
754.352	3469.846
754.480	3458.981
754.608	3433.115
754.737	3429.923
754.865	3398.635
754.993	3443.615
755.121	3431.635
755.249	3438.798
755.377	3291.817
755.505	3351.538
755.633	3404.308
755.762	3216.702
755.890	3261.923
756.018	3204.231
756.146	3199.385
756.274	3218.481
756.402	3181.106
756.530	3148.769
756.658	3141.404
756.787	3115.154
756.915	3082.827
757.043	3069.971
757.171	3089.365
757.299	3170.337
757.427	3038.029
757.555	3049.760
757.683	2988.183
757.812	3019.192
757.940	2960.173
758.068	2951.087
758.196	2939.769
758.324	2974.558
758.452	2907.317
758.580	2892.452
758.708	2859.096
758.837	2968.596
758.965	2883.942
759.093	2884.413
759.221	2831.673
759.349	2788.808
759.477	2859.827
759.605	2827.067
759.733	2825.356
759.862	2706.221
759.990	2695.115
760.118	2743.115
760.246	2843.317
760.374	2691.798
760.502	2681.442
760.630	2720.721
760.758	2652.644
760.887	2661.548
761.015	2610.221
761.143	2602.885
761.271	2625.837
761.399	2577.981
761.527	2587.529
761.655	2538.875
761.783	2495.500
761.912	2509.606
762.040	2588.490
762.168	2461.192
762.296	2570.885
762.424	2491.837
762.552	2562.529
762.680	2413.740
762.808	2476.346
762.937	2391.385
763.065	2390.663
763.193	2380.548
763.321	2385.596
763.449	2358.346
763.577	2347.010
763.705	2443.279
763.833	2359.125
763.962	2301.952
764.090	2318.231
764.218	2298.952
764.346	2335.933
764.474	2339.606
764.602	2267.981
764.730	2268.894
764.858	2272.596
764.987	2281.712
765.115	2248.760
765.243	2229.962
765.371	2230.163
765.499	2227.731
765.627	2230.971
765.755	2205.212
765.883	2190.981
766.012	2168.933
766.140	2165.260
766.268	2154.788
766.396	2166.365
766.524	2134.077
766.652	2113.452
766.780	2112.788
766.908	2109.404
767.037	2110.260
767.165	2092.317
767.293	2081.577
767.421	2080.962
767.549	2050.760
767.677	2067.471
767.805	2036.798
767.933	2027.875
768.062	2018.817
768.190	1996.240
768.318	2016.846
768.446	1985.192
768.574	1973.385
768.702	1983.163
768.830	1971.029
768.958	1947.452
769.087	1957.683
769.215	1930.346
769.343	1928.019
769.471	1949.817
769.599	1916.923
769.727	1911.423
769.855	1884.115
769.983	1915.548
770.112	1877.365
770.240	1865.808
770.368	1852.298
770.496	1839.673
770.624	1850.125
770.752	1830.923
770.880	1830.865
771.008	1811.231
771.137	1810.346
771.265	1792.154
771.393	1775.298
771.521	1786.240
771.649	1773.125
771.777	1794.135
771.905	1811.087
772.033	1785.817
772.162	1739.481
772.290	1734.202
772.418	1740.846
772.546	1712.327
772.674	1707.837
772.802	1694.894
772.930	1697.683
773.058	1690.519
773.187	1697.144
773.315	1678.538
773.443	1671.654
773.571	1673.135
773.699	1665.260
773.827	1658.606
773.955	1670.894
774.083	1639.308
774.212	1614.433
774.340	1624.577
774.468	1608.625
774.596	1593.567
774.724	1610.317
774.852	1604.952
774.980	1579.019
775.108	1571.538
775.237	1557.856
775.365	1554.981
775.493	1556.510
775.621	1555.038
775.749	1552.125
775.877	1550.365
776.005	1532.942
776.133	1522.452
776.262	1516.260
776.390	1522.356
776.518	1484.587
776.646	1497.913
776.774	1487.827
776.902	1474.615
777.030	1468.683
777.158	1470.077
777.287	1473.029
777.415	1447.481
777.543	1446.327
777.671	1444.183
777.799	1438.317
777.927	1433.740
778.055	1426.308
778.183	1417.625
778.312	1410.250
778.440	1402.644
778.568	1429.337
778.696	1403.548
778.824	1403.096
778.952	1397.606
779.080	1368.760
779.208	1377.625
779.337	1364.654
779.465	1365.192
779.593	1349.106
779.721	1342.500
779.849	1343.692
779.977	1343.731
780.105	1319.135
780.233	1328.173
780.362	1310.712
780.490	1300.798
780.618	1316.952
780.746	1299.817
780.874	1293.760
781.002	1294.279
781.130	1273.529
781.258	1264.865
781.387	1270.317
781.515	1267.712
781.643	1250.683
781.771	1256.490
781.899	1255.971
782.027	1236.279
782.155	1219.827
782.283	1225.981
782.412	1222.500
782.540	1227.067
782.668	1211.894
782.796	1206.298
782.924	1206.875
783.052	1212.067
783.180	1186.000
783.308	1190.625
783.437	1182.442
783.565	1179.000
783.693	1188.154
783.821	1176.548
783.949	1171.894
784.077	1148.279
784.205	1162.635
784.333	1141.144
784.462	1140.000
784.590	1134.942
784.718	1132.529
784.846	1132.760
784.974	1119.183
785.102	1118.221
785.230	1116.577
785.358	1110.077
785.487	1105.529
785.615	1095.865
785.743	1083.721
785.871	1086.952
785.999	1079.952
786.127	1080.894
786.255	1068.635
786.383	1070.769
786.512	1066.663
786.640	1050.981
786.768	1047.288
786.896	1049.529
787.024	1036.596
787.152	1036.904
787.280	1042.577
787.408	1030.625
787.537	1027.337
787.665	1032.529
787.793	1008.240
787.921	1011.096
788.049	1007.692
788.177	1002.087
788.305	1004.385
788.433	991.644
788.562	974.750
788.690	976.173
788.818	976.673
788.946	969.423
789.074	968.433
789.202	953.529
789.330	952.173
789.458	951.808
789.587	946.837
789.715	960.596
789.843	942.317
789.971	942.846
790.099	928.433
790.227	921.779
790.355	928.202
790.483	927.221
790.612	912.692
790.740	915.038
790.868	901.096
790.996	917.971
791.124	915.865
791.252	903.000
791.380	896.558
791.508	893.490
791.637	895.202
791.765	883.596
791.893	876.673
792.021	869.135
792.149	873.808
792.277	871.971
792.405	853.250
792.533	862.731
792.662	854.212
792.790	853.519
792.918	856.250
793.046	838.692
793.174	840.327
793.302	837.490
793.430	823.192
793.558	833.721
793.687	821.452
793.815	819.279
793.943	825.500
794.071	803.567
794.199	814.500
794.327	804.192
794.455	810.644
794.583	797.904
794.712	794.000
794.840	779.413
794.968	783.846
795.096	788.413
795.224	766.087
795.352	812.625
795.480	758.587
795.608	768.837
795.737	748.663
795.865	754.558
795.993	747.010
796.121	741.731
796.249	737.779
796.377	745.019
796.505	737.558
796.633	739.394
796.762	727.067
796.890	736.135
797.018	728.519
797.146	732.558
797.274	721.846
797.402	710.000
797.530	697.077
797.658	701.942
797.787	715.019
797.915	703.731
798.043	690.702
798.171	700.144
798.299	680.442
798.427	689.875
798.555	699.567
798.683	679.183
798.812	702.779
798.940	716.135
799.068	705.962
799.196	678.385
799.324	674.029
799.452	652.865
799.580	657.260
799.708	651.750
799.837	649.558
799.965	640.433
800.093	646.077
800.221	647.481
800.349	632.029
800.477	632.394
800.605	628.471
800.733	646.913
800.862	624.615
800.990	622.798
801.118	623.942
801.246	617.010
801.374	621.731
801.502	613.442
801.630	611.625
801.758	611.192
801.887	592.894
802.015	604.356
802.143	598.077
802.271	588.327
802.399	588.240
802.527	582.644
802.655	584.327
802.783	580.337
802.912	574.529
803.040	575.856
803.168	573.077
803.296	580.385
803.424	567.538
803.552	570.394
803.680	563.433
803.808	558.413
803.937	555.125
804.065	554.481
804.193	556.260
804.321	570.817
804.449	568.183
804.577	551.798
804.705	562.663
804.833	537.779
804.962	536.452
805.090	540.933
805.218	532.163
805.346	532.731
805.474	541.250
805.602	528.077
805.730	547.952
805.858	520.029
805.987	516.981
806.115	518.788
806.243	526.029
806.371	517.135
806.499	516.644
806.627	505.981
806.755	513.144
806.883	511.865
807.012	498.702
807.140	502.740
807.268	495.837
807.396	496.462
807.524	498.615
807.652	502.250
807.780	493.904
807.908	486.625
808.037	505.500
808.165	491.904
808.293	479.231
808.421	481.606
808.549	480.048
808.677	482.298
808.805	486.894
808.933	470.779
809.062	476.413
809.190	489.221
809.318	475.106
809.446	465.827
809.574	475.288
809.702	457.740
809.830	454.308
809.958	465.221
810.087	457.933
810.215	461.038
810.343	461.808
810.471	456.798
810.599	450.538
810.727	457.942
810.855	442.548
810.983	453.394
811.112	444.221
811.240	438.019
811.368	440.115
811.496	449.923
811.624	442.692
811.752	439.308
811.880	451.019
812.008	439.990
812.137	443.692
812.265	431.250
812.393	432.529
812.521	423.962
812.649	429.538
812.777	423.279
812.905	430.952
813.033	427.452
813.162	415.779
813.290	410.375
813.418	416.933
813.546	418.827
813.674	409.308
813.802	408.010
813.930	407.615
814.058	407.808
814.187	406.327
814.315	404.106
814.443	400.962
814.571	398.904
814.699	393.769
814.827	405.212
814.955	400.250
815.083	390.365
815.212	397.067
815.340	391.683
815.468	401.125
815.596	384.606
815.724	389.933
815.852	391.827
815.980	390.519
816.108	385.760
816.237	387.442
816.365	394.769
816.493	383.365
816.621	392.269
816.749	370.923
816.877	441.856
817.005	393.577
817.133	384.154
817.262	375.404
817.390	369.154
817.518	375.221
817.646	364.577
817.774	362.846
817.902	361.154
818.030	363.971
818.158	371.606
818.287	362.712
818.415	359.846
818.543	354.558
818.671	359.894
818.799	355.827
818.927	350.385
819.055	379.298
819.183	362.269
819.312	374.154
819.440	353.971
819.568	350.875
819.696	353.212
819.824	347.933
819.952	351.596
820.080	349.808
820.208	339.788
820.337	350.019
820.465	346.654
820.593	348.548
820.721	341.404
820.849	333.750
820.977	340.404
821.105	339.971
821.233	332.327
821.362	339.558
821.490	332.558
821.618	338.635
821.746	341.433
821.874	334.817
822.002	324.231
822.130	329.962
822.258	331.115
822.387	327.769
822.515	334.279
822.643	326.442
822.771	329.558
822.899	328.337
823.027	319.269
823.155	325.269
823.283	334.010
823.412	326.635
823.540	318.279
823.668	312.413
823.796	319.221
823.924	316.538
824.052	318.510
824.180	323.683
824.308	315.635
824.437	326.048
824.565	321.808
824.693	310.481
824.821	301.442
824.949	312.683
825.077	312.740
825.205	301.808
825.333	306.106
825.462	309.731
825.590	297.971
825.718	298.663
825.846	306.452
825.974	303.106
826.102	303.702
826.230	305.942
826.358	311.087
826.487	303.510
826.615	299.375
826.743	293.702
826.871	305.288
826.999	300.404
827.127	300.827
827.255	296.077
827.383	292.019
827.512	288.769
827.640	296.962
827.768	313.894
827.896	286.192
828.024	296.644
828.152	288.106
828.280	292.904
828.408	281.865
828.537	294.721
828.665	287.740
828.793	287.163
828.921	287.962
829.049	290.712
829.177	285.481
829.305	283.885
829.433	282.308
829.562	281.529
829.690	281.317
829.818	290.337
829.946	276.625
830.074	279.856
830.202	276.327
830.330	284.423
830.458	271.163
830.587	285.846
830.715	277.135
830.843	272.462
830.971	275.231
831.099	273.750
831.227	303.692
831.355	269.077
831.483	271.923
831.612	273.048
831.740	264.317
831.868	276.288
831.996	280.942
832.124	269.423
832.252	277.683
832.380	272.337
832.508	271.154
832.637	266.673
832.765	276.163
832.893	273.413
833.021	266.625
833.149	264.558
833.277	265.606
833.405	271.817
833.533	262.327
833.662	267.144
833.790	256.510
833.918	265.635
834.046	256.087
834.174	259.144
834.302	267.250
834.430	259.067
834.558	255.058
834.687	264.683
834.815	261.510
834.943	256.490
835.071	260.231
835.199	260.827
835.327	253.452
835.455	266.635
835.583	255.692
835.712	251.625
835.840	259.423
835.968	251.615
836.096	257.375
836.224	254.615
836.352	255.760
836.480	251.317
836.608	247.404
836.737	254.702
836.865	247.885
836.993	255.288
837.121	259.625
837.249	254.385
837.377	244.817
837.505	239.173
837.633	249.837
837.762	253.221
837.890	254.452
838.018	251.077
838.146	246.029
838.274	249.212
838.402	245.250
838.530	256.375
838.658	247.683
838.787	254.596
838.915	241.827
839.043	249.144
839.171	245.192
839.299	247.365
839.427	264.087
839.555	250.971
839.683	238.240
839.812	241.087
839.940	234.817
840.068	244.212
840.196	272.365
840.324	261.346
840.452	248.538
840.580	239.500
840.708	230.288
840.837	240.365
840.965	238.394
841.093	234.500
841.221	237.558
841.349	238.163
841.477	229.481
841.605	230.769
841.733	234.712
841.862	242.731
841.990	237.115
842.118	231.827
842.246	233.500
842.374	227.567
842.502	241.500
842.630	235.260
842.758	226.875
842.887	240.067
843.015	245.346
843.143	228.952
843.271	232.913
843.399	231.404
843.527	232.442
843.655	225.490
843.783	231.452
843.912	230.269
844.040	226.462
844.168	229.875
844.296	238.904
844.424	235.913
844.552	234.817
844.680	230.077
844.808	225.317
844.937	227.231
845.065	229.231
845.193	240.817
845.321	233.087
845.449	234.269
845.577	231.279
845.705	223.462
845.833	226.192
845.962	233.087
846.090	229.846
846.218	235.115
846.346	234.433
846.474	225.885
846.602	221.317
846.730	228.067
846.858	222.500
846.987	219.933
847.115	229.221
847.243	232.606
847.371	212.683
847.499	219.990
847.627	224.365
847.755	220.125
847.883	228.154
848.012	229.952
848.140	213.298
848.268	217.625
848.396	221.865
848.524	231.356
848.652	217.394
848.780	217.817
848.908	220.808
849.037	225.212
849.165	216.365
849.293	219.846
849.421	218.529
849.549	219.798
849.677	216.692
849.805	225.394
849.933	214.173
850.062	219.173
850.190	218.702
850.318	217.788
850.446	220.990
850.574	219.442
850.702	217.038
850.830	210.471
850.958	214.990
851.087	217.731
851.215	208.760
851.343	211.596
851.471	218.260
851.599	222.394
851.727	226.942
851.855	216.654
851.983	219.750
852.112	217.837
852.240	220.635
852.368	223.721
852.496	213.433
852.624	214.615
852.752	221.798
852.880	213.481
853.008	215.769
853.137	216.135
853.265	219.990
853.393	214.529
853.521	207.346
853.649	217.904
853.777	211.029
853.905	205.106
854.033	211.712
854.162	208.490
854.290	208.558
854.418	225.827
854.546	238.029
854.674	228.433
854.802	218.952
854.930	211.067
855.058	217.231
855.187	206.404
855.315	242.240
855.443	210.962
855.571	210.673
855.699	220.192
855.827	198.990
855.955	209.567
856.083	208.058
856.212	209.096
856.340	212.962
856.468	212.250
856.596	209.221
856.724	212.519
856.852	222.981
856.980	205.154
857.108	202.615
857.237	204.529
857.365	213.375
857.493	213.019
857.621	209.269
857.749	205.702
857.877	206.260
858.005	205.048
858.133	206.981
858.262	203.048
858.390	203.260
858.518	202.067
858.646	212.423
858.774	199.519
858.902	200.856
859.030	206.202
859.158	209.144
859.287	204.596
859.415	206.856
859.543	202.981
859.671	207.788
859.799	212.433
859.927	202.635
860.055	200.096
860.183	199.192
860.312	203.702
860.440	200.962
860.568	195.385
860.696	212.231
860.824	216.038
860.952	198.000
861.080	207.346
861.208	207.875
861.337	204.558
861.465	216.702
861.593	205.529
861.721	207.308
861.849	204.212
861.977	201.163
862.105	203.942
862.233	200.327
862.362	198.654
862.490	200.654
862.618	201.692
862.746	201.663
862.874	202.567
863.002	203.635
863.130	204.471
863.258	205.212
863.387	204.635
863.515	205.096
863.643	209.308
863.771	203.577
863.899	203.163
864.027	201.587
864.155	226.058
864.283	199.087
864.412	198.740
864.540	206.548
864.668	196.740
864.796	202.635
864.924	199.990
865.052	198.115
865.180	217.490
865.308	204.452
865.437	201.375
865.565	195.433
865.693	196.933
865.821	197.077
865.949	216.971
866.077	201.192
866.205	200.990
866.333	200.635
866.462	192.442
866.590	203.433
866.718	201.808
866.846	192.548
866.974	197.644
867.102	192.990
867.230	206.760
867.358	199.490
867.487	203.260
867.615	208.971
867.743	199.067
867.871	206.452
867.999	201.058
868.127	206.548
868.255	212.760
868.383	191.183
868.512	197.933
868.640	195.625
868.768	196.740
868.896	210.346
869.024	197.606
869.152	198.538
869.280	193.923
869.408	196.558
869.537	192.048
869.665	193.750
869.793	196.923
869.921	195.625
870.049	190.202
870.177	201.760
870.305	190.788
870.433	194.077
870.562	201.346
870.690	195.952
870.818	202.048
870.946	193.106
871.074	191.087
871.202	199.029
871.330	191.567
871.458	197.221
871.587	196.375
871.715	195.885
871.843	197.635
871.971	201.038
872.099	187.942
872.227	194.308
872.355	193.135
872.483	191.423
872.612	199.115
872.740	196.269
872.868	193.385
872.996	195.750
873.124	202.990
873.252	196.510
873.380	186.298
873.508	202.740
873.637	200.250
873.765	190.644
873.893	192.308
874.021	195.462
874.149	192.885
874.277	194.471
874.405	201.990
874.533	201.596
874.662	191.413
874.790	200.529
874.918	189.087
875.046	200.106
875.174	191.712
875.302	190.288
875.430	189.654
875.558	199.240
875.687	198.125
875.815	193.856
875.943	198.885
876.071	196.779
876.199	193.798
876.327	194.163
876.455	193.337
876.583	188.519
876.712	200.250
876.840	194.000
876.968	192.615
877.096	195.798
877.224	191.269
877.352	185.894
877.480	193.596
877.608	204.019
877.737	200.125
877.865	191.356
877.993	196.846
878.121	197.433
878.249	194.019
878.377	194.288
878.505	197.721
878.633	197.144
878.762	189.875
878.890	194.154
879.018	200.087
879.146	190.817
879.274	215.856
879.402	197.673
879.530	190.115
879.658	194.587
879.787	193.952
879.915	192.192
880.043	190.875
880.171	226.558
880.299	197.346
880.427	201.423
880.555	187.135
880.683	196.452
880.812	193.635
880.940	194.279
881.068	201.442
881.196	194.500
881.324	191.173
881.452	186.952
881.580	193.404
881.708	198.875
881.837	196.240
881.965	194.337
882.093	183.731
882.221	190.981
882.349	186.058
882.477	191.990
882.605	195.096
882.733	199.010
882.862	188.625
882.990	201.683
883.118	199.010
883.246	199.625
883.374	195.019
883.502	202.279
883.630	196.933
883.758	190.856
883.887	196.769
884.015	195.490
884.143	198.817
884.271	192.096
884.399	188.106
884.527	193.952
884.655	192.894
884.783	193.462
884.912	210.865
885.040	200.913
885.168	189.135
885.296	203.260
885.424	190.865
885.552	191.952
885.680	208.202
885.808	198.760
885.937	197.750
886.065	205.952
886.193	194.231
886.321	190.327
886.449	190.250
886.577	189.913
886.705	201.625
886.833	185.087
886.962	195.875
887.090	195.865
887.218	190.096
887.346	188.692
887.474	189.298
887.602	191.558
887.730	188.135
887.858	185.971
887.987	190.942
888.115	193.923
888.243	189.375
888.371	203.894
888.499	191.356
888.627	193.337
888.755	200.644
888.883	191.125
889.012	194.952
889.140	187.644
889.268	196.462
889.396	182.212
889.524	201.423
889.652	180.577
889.780	193.433
889.908	192.308
890.037	199.442
890.165	189.827
890.293	197.462
890.421	195.760
890.549	184.769
890.677	183.827
890.805	190.144
890.933	187.721
891.062	192.962
891.190	192.423
891.318	188.337
891.446	188.538
891.574	185.500
891.702	192.635
891.830	191.000
891.958	199.663
892.087	196.115
892.215	193.192
892.343	191.769
892.471	195.548
892.599	182.423
892.727	193.587
892.855	207.548
892.983	183.750
893.112	186.721
893.240	194.154
893.368	187.587
893.496	199.702
893.624	196.375
893.752	211.798
893.880	197.433
894.008	191.740
894.137	188.952
894.265	197.327
894.393	186.635
894.521	196.442
894.649	191.952
894.777	183.125
894.905	225.865
895.033	188.817
895.162	189.327
895.290	197.260
895.418	191.510
895.546	220.625
895.674	196.990
895.802	231.837
895.930	191.615
896.058	185.519
896.187	190.721
896.315	185.221
896.443	201.356
896.571	215.548
896.699	185.692
896.827	190.413
896.955	187.923
897.083	190.510
897.212	189.481
897.340	188.654
897.468	189.019
897.596	189.452
897.724	184.663
897.852	183.740
897.980	180.942
898.108	193.442
898.237	187.317
898.365	184.125
898.493	193.644
898.621	185.000
898.749	189.471
898.877	187.500
899.005	183.933
899.133	187.721
899.262	203.548
899.390	187.048
899.518	188.942
899.646	184.712
899.774	180.462
899.902	182.212
900.030	195.538
900.158	188.971
900.287	186.125
900.415	183.683
900.543	188.817
900.671	196.519
900.799	187.154
900.927	186.279
901.055	195.779
901.183	196.356
901.312	192.106
901.440	181.308
901.568	184.769
901.696	183.962
901.824	182.596
901.952	181.356
902.080	191.346
902.208	186.760
902.337	195.798
902.465	186.135
902.593	197.962
902.721	212.279
902.849	209.096
902.977	192.038
903.105	190.933
903.233	191.317
903.362	181.760
903.490	193.404
903.618	187.288
903.746	181.990
903.874	189.000
904.002	182.096
904.130	197.067
904.258	177.365
904.387	188.692
904.515	180.375
904.643	187.510
904.771	183.221
904.899	182.769
905.027	190.596
905.155	183.990
905.283	181.471
905.412	199.452
905.540	187.923
905.668	182.221
905.796	186.269
905.924	186.413
906.052	185.913
906.180	190.798
906.308	182.798
906.437	178.971
906.565	189.067
906.693	191.625
906.821	184.971
906.949	183.413
907.077	179.635
907.205	193.942
907.333	180.115
907.462	182.712
907.590	186.913
907.718	184.250
907.846	191.231
907.974	182.673
908.102	184.260
908.230	188.971
908.358	183.990
908.487	180.558
908.615	191.577
908.743	188.837
908.871	186.635
908.999	178.058
909.127	183.942
909.255	192.087
909.383	180.288
909.512	177.587
909.640	193.615
909.768	185.231
909.896	187.933
910.024	190.827
910.152	188.288
910.280	192.423
910.408	178.442
910.537	177.010
910.665	191.981
910.793	187.067
910.921	190.827
911.049	190.250
911.177	194.587
911.305	187.240
911.433	205.933
911.562	189.413
911.690	190.635
911.818	184.327
911.946	186.125
912.074	193.413
912.202	178.183
912.330	202.077
912.458	180.087
912.587	187.933
912.715	187.010
912.843	201.865
912.971	188.519
913.099	206.837
913.227	198.433
913.355	193.106
913.483	201.894
913.612	202.163
913.740	222.567
913.868	196.962
