90_90_wo_Pol_at_750.00nm_cut_at_1179.00Y_01.dat
03.07.2023
11:21:18
cut middle at Y: 1179.00
top cursor: 1231 down cursor: 1127 mean of: 104 lines , 2560 datapoints
wavelength(nm)	intensity[arb. units]
585.996	23460.625
586.124	23060.096
586.252	23068.404
586.380	23133.308
586.508	23180.173
586.637	23330.356
586.765	23350.106
586.893	23372.702
587.021	23443.019
587.149	23517.125
587.277	23553.683
587.405	23560.510
587.533	23671.837
587.662	23654.663
587.790	23639.587
587.918	23654.000
588.046	23628.019
588.174	23701.567
588.302	23731.019
588.430	23750.163
588.558	23755.337
588.687	23760.192
588.815	23703.019
588.943	23747.192
589.071	23719.317
589.199	23733.192
589.327	23744.442
589.455	23765.596
589.583	23737.125
589.712	23755.740
589.840	23692.510
589.968	23701.952
590.096	23755.615
590.224	23699.663
590.352	23832.885
590.480	23782.596
590.608	23732.413
590.737	23760.356
590.865	23745.558
590.993	23640.894
591.121	23678.327
591.249	23675.183
591.377	23715.077
591.505	23764.788
591.633	23707.471
591.762	23705.885
591.890	23720.538
592.018	23852.385
592.146	23803.731
592.274	23769.644
592.402	23747.115
592.530	23958.337
592.658	23866.317
592.787	23893.058
592.915	23955.933
593.043	23816.837
593.171	23957.875
593.299	23898.654
593.427	23915.115
593.555	23967.837
593.683	23983.048
593.812	24003.913
593.940	24076.740
594.068	24104.500
594.196	24091.933
594.324	24177.654
594.452	24390.558
594.580	24317.644
594.708	24321.952
594.837	24371.250
594.965	24499.971
595.093	24489.356
595.221	24620.885
595.349	24606.212
595.477	24617.731
595.605	24697.827
595.733	24707.750
595.862	24744.769
595.990	24702.942
596.118	24801.490
596.246	24879.173
596.374	24825.644
596.502	24914.875
596.630	24905.971
596.758	24894.462
596.887	25012.375
597.015	25034.106
597.143	24947.875
597.271	25039.404
597.399	25155.712
597.527	25052.587
597.655	25093.990
597.783	25114.192
597.912	25121.077
598.040	25137.365
598.168	25151.846
598.296	25093.817
598.424	25220.413
598.552	25033.327
598.680	25105.769
598.808	25243.529
598.937	25139.481
599.065	25084.250
599.193	25153.298
599.321	25146.990
599.449	25097.788
599.577	25082.827
599.705	25049.423
599.833	25017.173
599.962	24944.067
600.090	25072.433
600.218	24983.375
600.346	25025.510
600.474	24935.221
600.602	24966.183
600.730	24974.673
600.858	25033.462
600.987	25175.962
601.115	24974.490
601.243	25065.817
601.371	25111.452
601.499	25095.462
601.627	25188.577
601.755	25154.510
601.883	25171.308
602.012	25052.163
602.140	25129.933
602.268	25172.731
602.396	25319.606
602.524	25303.029
602.652	25441.731
602.780	25357.048
602.908	25450.269
603.037	25565.404
603.165	25515.163
603.293	25643.856
603.421	25660.625
603.549	25725.644
603.677	25842.202
603.805	25834.192
603.933	25886.865
604.062	26066.240
604.190	26160.260
604.318	26196.635
604.446	26165.788
604.574	26273.308
604.702	26348.529
604.830	26368.231
604.958	26401.683
605.087	26561.702
605.215	26668.240
605.343	26774.077
605.471	26789.712
605.599	26821.135
605.727	27004.452
605.855	27083.067
605.983	27086.346
606.112	27148.875
606.240	27175.048
606.368	27181.337
606.496	27210.788
606.624	27323.760
606.752	27270.058
606.880	27388.548
607.008	27397.221
607.137	27406.308
607.265	27503.135
607.393	27515.154
607.521	27564.904
607.649	27523.673
607.777	27482.087
607.905	27538.654
608.033	27497.846
608.162	27454.808
608.290	27491.173
608.418	27611.356
608.546	27600.490
608.674	27648.788
608.802	27563.904
608.930	27528.817
609.058	27497.750
609.187	27499.212
609.315	27506.577
609.443	27487.125
609.571	27566.923
609.699	27383.250
609.827	27457.087
609.955	27474.933
610.083	27346.106
610.212	27328.010
610.340	27261.510
610.468	27306.452
610.596	27271.471
610.724	27261.471
610.852	27286.894
610.980	27267.558
611.108	27261.192
611.237	27276.087
611.365	27290.519
611.493	27245.962
611.621	27253.587
611.749	27277.548
611.877	27315.154
612.005	27322.442
612.133	27365.760
612.262	27389.077
612.390	27423.981
612.518	27440.087
612.646	27445.308
612.774	27558.058
612.902	27488.548
613.030	27546.644
613.158	27506.317
613.287	27610.019
613.415	27571.923
613.543	27591.875
613.671	27657.712
613.799	27701.990
613.927	27761.000
614.055	27839.029
614.183	27829.058
614.312	27850.913
614.440	28001.712
614.568	28036.365
614.696	28084.808
614.824	28111.212
614.952	28137.702
615.080	28212.731
615.208	28324.952
615.337	28412.240
615.465	28368.385
615.593	28539.413
615.721	28415.856
615.849	28584.471
615.977	28600.510
616.105	28633.663
616.233	28709.606
616.362	28861.558
616.490	28830.490
616.618	28915.644
616.746	29027.769
616.874	29068.462
617.002	29085.000
617.130	29135.817
617.258	29101.240
617.387	29138.067
617.515	29186.385
617.643	29197.135
617.771	29308.885
617.899	29254.260
618.027	29342.519
618.155	29350.173
618.283	29391.462
618.412	29426.019
618.540	29516.654
618.668	29466.490
618.796	29493.019
618.924	29512.971
619.052	29557.067
619.180	29460.144
619.308	29425.683
619.437	29444.404
619.565	29517.500
619.693	29471.750
619.821	29507.202
619.949	29449.846
620.077	29521.827
620.205	29506.654
620.333	29506.279
620.462	29517.548
620.590	29507.423
620.718	29563.394
620.846	29566.356
620.974	29579.712
621.102	29525.615
621.230	29543.750
621.358	29616.471
621.487	29498.029
621.615	29515.933
621.743	29414.817
621.871	29525.904
621.999	29461.644
622.127	29439.481
622.255	29416.029
622.383	29386.827
622.512	29429.798
622.640	29318.663
622.768	29438.423
622.896	29462.471
623.024	29399.731
623.152	29398.894
623.280	29448.385
623.408	29414.404
623.537	29479.240
623.665	29401.260
623.793	29511.077
623.921	29427.692
624.049	29465.490
624.177	29389.808
624.305	29409.038
624.433	29364.808
624.562	29421.808
624.690	29431.567
624.818	29304.356
624.946	29273.192
625.074	29322.298
625.202	29309.404
625.330	29297.615
625.458	29452.760
625.587	29348.981
625.715	29383.423
625.843	29360.981
625.971	29474.471
626.099	29388.673
626.227	29387.490
626.355	29343.837
626.483	29386.337
626.612	29435.154
626.740	29472.731
626.868	29484.231
626.996	29457.231
627.124	29518.673
627.252	29453.250
627.380	29503.635
627.508	29428.740
627.637	29483.385
627.765	29596.221
627.893	29595.029
628.021	29596.173
628.149	29591.606
628.277	29673.365
628.405	29624.663
628.533	29583.808
628.662	29667.702
628.790	29809.538
628.918	29761.683
629.046	29920.115
629.174	29843.500
629.302	29792.356
629.430	29808.952
629.558	29867.750
629.687	29913.615
629.815	29973.587
629.943	30134.087
630.071	30084.413
630.199	30076.615
630.327	30162.740
630.455	30232.471
630.583	30130.654
630.712	30230.894
630.840	30303.519
630.968	30290.760
631.096	30389.125
631.224	30333.837
631.352	30467.385
631.480	30490.250
631.608	30627.846
631.737	30475.510
631.865	30578.587
631.993	30602.038
632.121	30725.962
632.249	30654.942
632.377	30639.087
632.505	30691.221
632.633	30750.548
632.762	30609.029
632.890	30729.452
633.018	30713.779
633.146	30683.913
633.274	30659.279
633.402	30694.250
633.530	30685.375
633.658	30713.375
633.787	30702.019
633.915	30704.817
634.043	30708.125
634.171	30785.654
634.299	30727.673
634.427	30660.827
634.555	30910.663
634.683	30738.250
634.812	30692.798
634.940	30596.587
635.068	30616.971
635.196	30576.913
635.324	30599.423
635.452	30588.731
635.580	30584.740
635.708	30515.394
635.837	30519.808
635.965	30470.356
636.093	30441.567
636.221	30333.394
636.349	30251.442
636.477	30251.279
636.605	30270.846
636.733	30240.077
636.862	30097.375
636.990	30118.962
637.118	30076.615
637.246	30020.606
637.374	30138.106
637.502	29916.779
637.630	29926.538
637.758	29808.923
637.887	29806.087
638.015	29889.702
638.143	29764.808
638.271	29640.875
638.399	29700.288
638.527	29584.529
638.655	29579.587
638.783	29551.471
638.912	29590.942
639.040	29392.490
639.168	29365.221
639.296	29328.942
639.424	29422.952
639.552	29264.875
639.680	29366.288
639.808	29251.673
639.937	29252.442
640.065	29249.058
640.193	29254.692
640.321	29264.510
640.449	29245.135
640.577	29174.096
640.705	29174.394
640.833	29147.837
640.962	29196.519
641.090	29086.913
641.218	29106.058
641.346	29196.087
641.474	29129.567
641.602	29138.077
641.730	29077.096
641.858	29120.394
641.987	29133.913
642.115	29286.952
642.243	29118.625
642.371	29237.288
642.499	29095.500
642.627	29172.231
642.755	29120.442
642.883	29179.452
643.012	29151.558
643.140	29201.048
643.268	29179.327
643.396	29071.942
643.524	29140.231
643.652	29228.337
643.780	29167.327
643.908	29162.250
644.037	29271.500
644.165	29306.279
644.293	29337.904
644.421	29184.606
644.549	29215.510
644.677	29255.298
644.805	29169.125
644.933	29155.510
645.062	29219.154
645.190	29357.067
645.318	29317.779
645.446	29246.625
645.574	29218.933
645.702	29223.625
645.830	29270.587
645.958	29193.933
646.087	29256.663
646.215	29216.087
646.343	29190.615
646.471	29363.510
646.599	29187.827
646.727	29191.510
646.855	29224.038
646.983	29134.981
647.112	29259.692
647.240	29217.029
647.368	29187.106
647.496	29161.144
647.624	29103.971
647.752	29137.702
647.880	29100.067
648.008	29093.192
648.137	29147.490
648.265	29074.942
648.393	29165.029
648.521	29045.779
648.649	29169.298
648.777	29041.019
648.905	28963.365
649.033	28957.885
649.162	28862.942
649.290	28776.356
649.418	28748.173
649.546	28944.394
649.674	28711.029
649.802	28740.740
649.930	28660.962
650.058	28626.029
650.187	28630.529
650.315	28557.894
650.443	28573.625
650.571	28470.625
650.699	28459.288
650.827	28402.529
650.955	28361.404
651.083	28335.577
651.212	28242.846
651.340	28211.779
651.468	28240.990
651.596	28173.481
651.724	28123.413
651.852	28090.269
651.980	28052.173
652.108	27960.673
652.237	27990.010
652.365	27935.423
652.493	27888.240
652.621	27856.115
652.749	27885.529
652.877	27822.096
653.005	27829.192
653.133	27738.663
653.262	27683.010
653.390	27658.615
653.518	27700.221
653.646	27571.740
653.774	27490.212
653.902	27627.923
654.030	27539.058
654.158	27466.106
654.287	27470.356
654.415	27396.240
654.543	27413.558
654.671	27358.279
654.799	27374.212
654.927	27296.913
655.055	27276.394
655.183	27230.817
655.312	27201.337
655.440	27151.894
655.568	27157.654
655.696	27180.577
655.824	27072.269
655.952	27084.288
656.080	26982.673
656.208	27019.327
656.337	27021.481
656.465	27140.260
656.593	26944.856
656.721	26917.433
656.849	26914.269
656.977	26745.808
657.105	26798.365
657.233	26802.433
657.362	26863.865
657.490	26760.192
657.618	26803.404
657.746	26707.615
657.874	26550.202
658.002	26449.683
658.130	26382.192
658.258	26352.837
658.387	26325.913
658.515	26310.769
658.643	26201.875
658.771	26295.721
658.899	26213.433
659.027	26180.654
659.155	26127.288
659.283	26039.567
659.412	26020.067
659.540	25997.394
659.668	26054.096
659.796	26173.500
659.924	26075.904
660.052	26207.798
660.180	26117.029
660.308	26072.981
660.437	26069.913
660.565	25988.394
660.693	25808.538
660.821	25954.894
660.949	25774.769
661.077	25793.779
661.205	25951.740
661.333	25756.615
661.462	25672.000
661.590	25725.269
661.718	25659.865
661.846	25638.615
661.974	25553.077
662.102	25562.452
662.230	25526.106
662.358	25387.875
662.487	25435.606
662.615	25360.413
662.743	25374.567
662.871	25409.260
662.999	25313.135
663.127	25235.096
663.255	25157.279
663.383	25342.712
663.512	25153.981
663.640	25182.144
663.768	25208.000
663.896	25074.827
664.024	25095.096
664.152	25104.471
664.280	25109.077
664.408	24973.952
664.537	24983.077
664.665	24940.154
664.793	24990.077
664.921	24881.221
665.049	24996.048
665.177	24892.721
665.305	24874.654
665.433	24841.856
665.562	24994.625
665.690	24783.240
665.818	24944.577
665.946	24719.596
666.074	24686.577
666.202	24677.067
666.330	24636.404
666.458	24872.462
666.587	24581.827
666.715	24573.240
666.843	24507.000
666.971	24482.260
667.099	24486.404
667.227	24536.615
667.355	24541.058
667.483	24448.538
667.612	24520.548
667.740	24391.337
667.868	24361.394
667.996	24356.548
668.124	24366.923
668.252	24428.317
668.380	24261.413
668.508	24268.981
668.637	24154.673
668.765	24207.788
668.893	24141.385
669.021	24094.490
669.149	24099.288
669.277	24029.846
669.405	24185.385
669.533	24111.413
669.662	24006.462
669.790	23961.115
669.918	23927.279
670.046	24076.317
670.174	23833.827
670.302	23766.769
670.430	23724.135
670.558	23795.702
670.687	23861.221
670.815	23650.846
670.943	23686.462
671.071	23574.702
671.199	23528.577
671.327	23510.635
671.455	23529.856
671.583	23431.298
671.712	23362.173
671.840	23470.548
671.968	23529.010
672.096	23436.231
672.224	23228.288
672.352	23198.385
672.480	23111.231
672.608	23114.731
672.737	23098.356
672.865	23043.702
672.993	22956.317
673.121	22857.029
673.249	22836.750
673.377	22821.019
673.505	22759.923
673.633	22794.577
673.762	22633.163
673.890	22648.990
674.018	22684.462
674.146	22537.019
674.274	22527.625
674.402	22500.317
674.530	22419.096
674.658	22378.327
674.787	22242.413
674.915	22366.317
675.043	22194.885
675.171	22158.962
675.299	22118.413
675.427	22036.519
675.555	21989.490
675.683	21961.837
675.812	21881.529
675.940	21858.971
676.068	21701.231
676.196	21790.615
676.324	21671.183
676.452	21658.096
676.580	21513.288
676.708	21497.067
676.837	21437.663
676.965	21501.740
677.093	21504.442
677.221	21338.087
677.349	21178.654
677.477	21245.212
677.605	21086.519
677.733	21079.885
677.862	21049.125
677.990	21011.010
678.118	21006.048
678.246	20880.692
678.374	20911.567
678.502	20783.067
678.630	20664.077
678.758	20675.904
678.887	20765.202
679.015	20488.644
679.143	20484.192
679.271	20431.240
679.399	20387.019
679.527	20352.856
679.655	20422.837
679.783	20266.615
679.912	20231.163
680.040	20353.058
680.168	20091.529
680.296	20102.538
680.424	20036.279
680.552	19946.375
680.680	19915.173
680.808	19847.029
680.937	19817.740
681.065	19820.721
681.193	19726.019
681.321	19692.365
681.449	19716.692
681.577	19647.356
681.705	19606.798
681.833	19578.087
681.962	19506.413
682.090	19491.788
682.218	19379.846
682.346	19335.048
682.474	19338.894
682.602	19272.788
682.730	19305.904
682.858	19210.577
682.987	19156.952
683.115	19148.404
683.243	19117.548
683.371	19092.760
683.499	19037.404
683.627	19045.067
683.755	18951.962
683.883	18934.615
684.012	18887.115
684.140	18828.885
684.268	18819.779
684.396	18863.952
684.524	18736.221
684.652	18748.846
684.780	18729.077
684.908	18617.606
685.037	18638.058
685.165	18553.529
685.293	18605.644
685.421	18523.433
685.549	18467.125
685.677	18414.529
685.805	18421.788
685.933	18332.173
686.062	18330.269
686.190	18240.798
686.318	18235.683
686.446	18161.596
686.574	18127.673
686.702	18143.337
686.830	18043.808
686.958	18078.644
687.087	17999.481
687.215	17961.510
687.343	17960.865
687.471	18049.077
687.599	17781.038
687.727	17781.212
687.855	17727.827
687.983	17677.990
688.112	17714.769
688.240	17617.288
688.368	17646.442
688.496	17555.808
688.624	17508.154
688.752	17577.221
688.880	17417.394
689.008	17343.538
689.137	17354.990
689.265	17247.962
689.393	17226.923
689.521	17181.096
689.649	17293.385
689.777	17157.019
689.905	17169.577
690.033	17042.817
690.162	17006.096
690.290	17022.240
690.418	16935.375
690.546	16926.721
690.674	16874.365
690.802	16835.760
690.930	16784.923
691.058	16713.913
691.187	16656.981
691.315	16578.644
691.443	16548.635
691.571	16531.635
691.699	16446.087
691.827	16414.192
691.955	16372.673
692.083	16314.212
692.212	16288.308
692.340	16268.385
692.468	16261.462
692.596	16161.760
692.724	16084.010
692.852	16124.663
692.980	16062.250
693.108	16065.904
693.237	15951.183
693.365	15901.260
693.493	15837.942
693.621	15819.740
693.749	15733.327
693.877	15715.885
694.005	15588.385
694.133	15520.615
694.262	15597.413
694.390	15456.125
694.518	15401.942
694.646	15393.317
694.774	15314.433
694.902	15250.308
695.030	15199.154
695.158	15134.298
695.287	15112.423
695.415	15070.202
695.543	15015.308
695.671	14929.798
695.799	14992.365
695.927	14803.058
696.055	14846.096
696.183	14725.096
696.312	14860.010
696.440	14689.019
696.568	14649.519
696.696	14494.240
696.824	14429.317
696.952	14385.577
697.080	14388.337
697.208	14265.875
697.337	14285.298
697.465	14173.606
697.593	14095.423
697.721	14201.394
697.849	14003.144
697.977	14043.510
698.105	14050.356
698.233	13948.846
698.362	13837.423
698.490	13944.433
698.618	13722.163
698.746	13687.856
698.874	13729.231
699.002	13641.221
699.130	13647.663
699.258	13507.087
699.387	13455.971
699.515	13482.558
699.643	13406.048
699.771	13454.769
699.899	13303.288
700.027	13225.808
700.155	13230.817
700.283	13118.740
700.412	13093.663
700.540	13075.058
700.668	13074.019
700.796	12940.260
700.924	12974.942
701.052	12922.404
701.180	12884.471
701.308	12769.346
701.437	12726.308
701.565	12686.587
701.693	12669.154
701.821	12819.587
701.949	12560.990
702.077	12534.067
702.205	12539.913
702.333	12446.904
702.462	12377.067
702.590	12404.663
702.718	12245.452
702.846	12386.202
702.974	12185.202
703.102	12150.144
703.230	12137.587
703.358	12071.346
703.487	12014.779
703.615	11968.904
703.743	11882.346
703.871	11915.952
703.999	11849.135
704.127	11775.442
704.255	11700.481
704.383	11673.010
704.512	11731.221
704.640	11656.567
704.768	11650.394
704.896	11475.077
705.024	11400.375
705.152	11400.942
705.280	11378.827
705.408	11262.173
705.537	11212.596
705.665	11194.894
705.793	11127.606
705.921	11086.577
706.049	11005.019
706.177	11020.635
706.305	10938.875
706.433	10933.183
706.562	10865.817
706.690	10847.202
706.818	10797.087
706.946	10690.356
707.074	10638.577
707.202	10602.567
707.330	10560.346
707.458	10487.856
707.587	10426.452
707.715	10463.596
707.843	10419.760
707.971	10369.173
708.099	10311.144
708.227	10236.096
708.355	10188.288
708.483	10146.260
708.612	10144.385
708.740	10032.904
708.868	10009.173
708.996	10041.269
709.124	10005.712
709.252	9942.404
709.380	9884.837
709.508	9845.923
709.637	9823.625
709.765	9760.760
709.893	9770.413
710.021	9651.663
710.149	9743.846
710.277	9564.163
710.405	9544.019
710.533	9533.558
710.662	9467.212
710.790	9581.365
710.918	9397.567
711.046	9426.394
711.174	9339.702
711.302	9337.356
711.430	9231.163
711.558	9263.837
711.687	9199.635
711.815	9135.212
711.943	9103.471
712.071	9057.240
712.199	9083.731
712.327	9101.452
712.455	8950.942
712.583	9110.760
712.712	8930.077
712.840	8929.317
712.968	8838.154
713.096	8803.538
713.224	8718.240
713.352	8748.019
713.480	8650.885
713.608	8609.000
713.737	8590.933
713.865	8593.577
713.993	8555.106
714.121	8527.192
714.249	8451.827
714.377	8411.798
714.505	8389.462
714.633	8391.087
714.762	8306.423
714.890	8289.010
715.018	8289.481
715.146	8271.933
715.274	8206.567
715.402	8158.529
715.530	8133.702
715.658	8163.394
715.787	8086.981
715.915	8163.683
716.043	8004.288
716.171	8134.077
716.299	7912.740
716.427	7995.442
716.555	7900.673
716.683	7888.875
716.812	7833.933
716.940	7805.317
717.068	7725.087
717.196	7892.269
717.324	7727.923
717.452	7705.077
717.580	7707.817
717.708	7585.913
717.837	7582.413
717.965	7619.798
718.093	7526.971
718.221	7533.212
718.349	7582.462
718.477	7440.279
718.605	7520.356
718.733	7417.202
718.862	7423.192
718.990	7318.644
719.118	7340.029
719.246	7257.740
719.374	7193.394
719.502	7258.673
719.630	7337.942
719.758	7109.096
719.887	7112.500
720.015	7111.298
720.143	7137.212
720.271	6978.317
720.399	7038.827
720.527	6961.442
720.655	7038.981
720.783	6918.885
720.912	6858.058
721.040	6851.163
721.168	6868.067
721.296	6748.769
721.424	6739.615
721.552	6709.875
721.680	6737.240
721.808	6697.462
721.937	6651.163
722.065	6666.029
722.193	6601.808
722.321	6588.260
722.449	6557.269
722.577	6466.798
722.705	6450.260
722.833	6466.538
722.962	6404.923
723.090	6358.558
723.218	6336.894
723.346	6379.933
723.474	6293.202
723.602	6256.971
723.730	6209.635
723.858	6190.452
723.987	6191.029
724.115	6171.067
724.243	6184.769
724.371	6057.577
724.499	6056.481
724.627	6034.731
724.755	5998.308
724.883	6054.462
725.012	6135.779
725.140	5965.317
725.268	5887.423
725.396	5919.500
725.524	5982.837
725.652	5812.846
725.780	5903.365
725.908	5759.058
726.037	5738.490
726.165	5757.779
726.293	5650.913
726.421	5655.000
726.549	5677.394
726.677	5622.308
726.805	5552.010
726.933	5587.490
727.062	5519.942
727.190	5491.490
727.318	5457.952
727.446	5423.933
727.574	5366.827
727.702	5376.933
727.830	5393.654
727.958	5348.548
728.087	5399.817
728.215	5426.375
728.343	5241.856
728.471	5256.981
728.599	5393.673
728.727	5212.221
728.855	5176.846
728.983	5125.548
729.112	5146.337
729.240	5133.154
729.368	5052.337
729.496	5091.529
729.624	5078.019
729.752	4996.904
729.880	4961.125
730.008	4944.135
730.137	4958.365
730.265	4931.490
730.393	5082.288
730.521	5018.558
730.649	4831.183
730.777	4793.933
730.905	4820.250
731.033	4732.490
731.162	4856.038
731.290	4823.635
731.418	4711.952
731.546	4686.538
731.674	4668.548
731.802	4633.548
731.930	4718.202
732.058	4732.010
732.187	4611.442
732.315	4605.519
732.443	4691.452
732.571	4581.654
732.699	4561.625
732.827	4570.904
732.955	4480.154
733.083	4470.365
733.212	4489.673
733.340	4411.750
733.468	4420.240
733.596	4412.144
733.724	4364.846
733.852	4364.317
733.980	4338.548
734.108	4503.077
734.237	4348.894
734.365	4300.135
734.493	4284.337
734.621	4243.394
734.749	4248.327
734.877	4223.942
735.005	4216.010
735.133	4177.260
735.262	4272.500
735.390	4152.394
735.518	4123.962
735.646	4183.788
735.774	4177.490
735.902	4171.875
736.030	4062.192
736.158	4067.490
736.287	4071.894
736.415	4021.375
736.543	4017.183
736.671	3966.635
736.799	4013.096
736.927	3971.760
737.055	4051.462
737.183	3914.779
737.312	3886.471
737.440	3887.827
737.568	3954.327
737.696	3913.500
737.824	3856.096
737.952	4088.135
738.080	3806.875
738.208	3852.971
738.337	3782.567
738.465	3763.346
738.593	3760.115
738.721	3749.913
738.849	3803.183
738.977	3717.529
739.105	3719.308
739.233	3666.750
739.362	3651.135
739.490	3626.048
739.618	3694.567
739.746	3658.058
739.874	3600.654
740.002	3618.365
740.130	3593.173
740.258	3545.567
740.387	3583.952
740.515	3553.413
740.643	3521.356
740.771	3570.740
740.899	3479.202
741.027	3453.048
741.155	3431.558
741.283	3423.317
741.412	3514.875
741.540	3450.240
741.668	3415.865
741.796	3479.865
741.924	3373.077
742.052	3486.769
742.180	3352.712
742.308	3304.683
742.437	3343.625
742.565	3307.106
742.693	3382.231
742.821	3273.808
742.949	3244.308
743.077	3269.558
743.205	3180.548
743.333	3220.356
743.462	3218.644
743.590	3174.010
743.718	3193.279
743.846	3147.163
743.974	3172.587
744.102	3098.442
744.230	3137.385
744.358	3096.250
744.487	3080.519
744.615	3057.144
744.743	3052.173
744.871	3024.433
744.999	3073.288
745.127	3008.654
745.255	2978.548
745.383	3000.000
745.512	2973.942
745.640	2939.404
745.768	2927.692
745.896	2980.731
746.024	2951.144
746.152	2916.529
746.280	2955.269
746.408	2883.231
746.537	2934.144
746.665	2850.971
746.793	2839.144
746.921	2828.269
747.049	2845.481
747.177	2792.894
747.305	2973.654
747.433	2805.788
747.562	2758.875
747.690	2802.317
747.818	2821.183
747.946	2721.385
748.074	2713.375
748.202	2713.375
748.330	2693.538
748.458	2691.740
748.587	2641.692
748.715	2726.144
748.843	2635.500
748.971	2630.173
749.099	2638.529
749.227	2618.577
749.355	2633.471
749.483	2571.519
749.612	2639.317
749.740	2571.615
749.868	2572.048
749.996	2604.529
750.124	2612.663
750.252	2551.808
750.380	2537.106
750.508	2512.452
750.637	2467.144
750.765	2648.308
750.893	2489.625
751.021	2459.856
751.149	2501.913
751.277	2481.394
751.405	2467.269
751.533	2457.154
751.662	2426.904
751.790	2542.856
751.918	2431.471
752.046	2443.827
752.174	2425.712
752.302	2403.808
752.430	2415.990
752.558	2410.212
752.687	2394.519
752.815	2396.817
752.943	2364.904
753.071	2368.856
753.199	2373.673
753.327	2363.558
753.455	2338.106
753.583	2307.135
753.712	2308.615
753.840	2327.635
753.968	2283.596
754.096	2297.894
754.224	2280.106
754.352	2255.010
754.480	2280.346
754.608	2253.913
754.737	2243.894
754.865	2240.087
754.993	2226.452
755.121	2220.510
755.249	2178.231
755.377	2171.288
755.505	2184.721
755.633	2164.663
755.762	2158.971
755.890	2167.298
756.018	2139.865
756.146	2119.452
756.274	2099.212
756.402	2105.606
756.530	2105.298
756.658	2095.192
756.787	2049.144
756.915	2060.010
757.043	2043.885
757.171	2048.817
757.299	2045.279
757.427	2017.654
757.555	1997.721
757.683	2019.375
757.812	2002.394
757.940	1988.490
758.068	1980.529
758.196	1981.442
758.324	1963.538
758.452	1949.394
758.580	1946.481
758.708	1943.971
758.837	1947.615
758.965	1944.250
759.093	1916.654
759.221	1890.683
759.349	1875.788
759.477	1885.385
759.605	1865.317
759.733	1868.019
759.862	1845.904
759.990	1851.673
760.118	1841.798
760.246	1841.769
760.374	1830.692
760.502	1827.106
760.630	1797.192
760.758	1803.510
760.887	1785.077
761.015	1769.721
761.143	1777.202
761.271	1769.587
761.399	1749.135
761.527	1759.952
761.655	1755.490
761.783	1730.904
761.912	1732.077
762.040	1729.250
762.168	1688.769
762.296	1690.923
762.424	1684.231
762.552	1691.442
762.680	1662.952
762.808	1676.298
762.937	1655.635
763.065	1637.154
763.193	1634.433
763.321	1625.981
763.449	1626.750
763.577	1606.365
763.705	1620.510
763.833	1608.413
763.962	1588.029
764.090	1591.240
764.218	1570.606
764.346	1566.894
764.474	1562.606
764.602	1550.538
764.730	1544.212
764.858	1541.231
764.987	1534.865
765.115	1524.288
765.243	1500.183
765.371	1511.500
765.499	1493.615
765.627	1499.346
765.755	1498.740
765.883	1481.433
766.012	1472.846
766.140	1463.471
766.268	1451.115
766.396	1446.712
766.524	1456.808
766.652	1429.510
766.780	1428.740
766.908	1432.240
767.037	1434.462
767.165	1422.625
767.293	1416.337
767.421	1413.404
767.549	1386.913
767.677	1411.875
767.805	1379.952
767.933	1382.942
768.062	1372.385
768.190	1361.173
768.318	1367.885
768.446	1343.548
768.574	1332.260
768.702	1347.971
768.830	1344.942
768.958	1318.625
769.087	1329.490
769.215	1317.779
769.343	1318.212
769.471	1329.663
769.599	1306.183
769.727	1297.433
769.855	1279.942
769.983	1321.087
770.112	1284.510
770.240	1270.615
770.368	1258.962
770.496	1250.904
770.624	1259.125
770.752	1236.933
770.880	1250.029
771.008	1233.644
771.137	1227.087
771.265	1219.077
771.393	1205.462
771.521	1220.596
771.649	1223.202
771.777	1245.962
771.905	1249.212
772.033	1232.558
772.162	1183.587
772.290	1185.760
772.418	1190.827
772.546	1175.548
772.674	1170.567
772.802	1160.721
772.930	1167.452
773.058	1153.885
773.187	1155.365
773.315	1146.971
773.443	1140.337
773.571	1140.894
773.699	1136.433
773.827	1145.298
773.955	1161.010
774.083	1127.760
774.212	1111.202
774.340	1111.067
774.468	1101.154
774.596	1104.875
774.724	1112.356
774.852	1102.279
774.980	1092.875
775.108	1090.375
775.237	1071.394
775.365	1066.558
775.493	1076.885
775.621	1062.337
775.749	1070.250
775.877	1064.846
776.005	1059.683
776.133	1054.490
776.262	1039.952
776.390	1045.731
776.518	1032.029
776.646	1027.490
776.774	1032.163
776.902	1028.625
777.030	1012.058
777.158	1015.202
777.287	1018.990
777.415	1006.163
777.543	1008.202
777.671	1003.048
777.799	995.558
777.927	995.885
778.055	993.933
778.183	984.269
778.312	977.077
778.440	977.490
778.568	993.375
778.696	983.712
778.824	976.433
778.952	972.606
779.080	958.308
779.208	958.202
779.337	963.298
779.465	959.269
779.593	954.135
779.721	951.375
779.849	939.385
779.977	941.529
780.105	930.942
780.233	938.779
780.362	925.346
780.490	913.365
780.618	916.837
780.746	909.606
780.874	914.615
781.002	910.000
781.130	897.240
781.258	895.452
781.387	899.817
781.515	903.000
781.643	869.837
781.771	895.817
781.899	892.846
782.027	879.904
782.155	868.904
782.283	862.817
782.412	878.644
782.540	866.606
782.668	861.769
782.796	861.212
782.924	862.481
783.052	859.577
783.180	848.135
783.308	845.808
783.437	844.577
783.565	849.587
783.693	845.962
783.821	832.913
783.949	828.548
784.077	829.827
784.205	832.010
784.333	822.240
784.462	817.375
784.590	815.462
784.718	802.327
784.846	812.885
784.974	825.462
785.102	794.673
785.230	804.327
785.358	796.240
785.487	790.904
785.615	780.221
785.743	782.538
785.871	794.212
785.999	788.260
786.127	783.356
786.255	773.346
786.383	768.798
786.512	775.365
786.640	768.135
786.768	754.058
786.896	757.606
787.024	747.096
787.152	747.231
787.280	756.240
787.408	746.913
787.537	754.567
787.665	747.510
787.793	741.125
787.921	737.750
788.049	736.375
788.177	735.481
788.305	728.442
788.433	729.490
788.562	721.192
788.690	720.500
788.818	718.077
788.946	709.923
789.074	709.856
789.202	702.413
789.330	702.740
789.458	701.913
789.587	703.587
789.715	703.452
789.843	701.346
789.971	695.587
790.099	682.558
790.227	685.615
790.355	683.375
790.483	693.260
790.612	681.952
790.740	689.721
790.868	679.087
790.996	681.817
791.124	684.029
791.252	676.010
791.380	661.385
791.508	666.692
791.637	667.308
791.765	657.577
791.893	659.413
792.021	661.135
792.149	647.221
792.277	652.192
792.405	633.798
792.533	650.010
792.662	640.442
792.790	647.510
792.918	655.644
793.046	632.058
793.174	641.471
793.302	633.192
793.430	623.625
793.558	635.933
793.687	627.933
793.815	621.529
793.943	631.212
794.071	607.760
794.199	615.712
794.327	616.327
794.455	620.096
794.583	614.288
794.712	610.125
794.840	601.644
794.968	606.394
795.096	605.529
795.224	591.490
795.352	628.279
795.480	588.971
795.608	586.663
795.737	580.712
795.865	584.365
795.993	589.048
796.121	579.404
796.249	575.115
796.377	579.817
796.505	580.385
796.633	574.644
796.762	564.240
796.890	564.442
797.018	565.519
797.146	566.692
797.274	568.125
797.402	557.596
797.530	552.442
797.658	553.106
797.787	562.548
797.915	554.019
798.043	548.740
798.171	554.644
798.299	540.212
798.427	549.635
798.555	546.308
798.683	542.212
798.812	562.192
798.940	579.481
799.068	572.346
799.196	535.115
799.324	535.952
799.452	519.298
799.580	523.577
799.708	529.192
799.837	522.702
799.965	511.019
800.093	518.173
800.221	508.875
800.349	512.500
800.477	505.048
800.605	500.779
800.733	512.221
800.862	503.269
800.990	498.510
801.118	496.923
801.246	500.942
801.374	506.135
801.502	492.346
801.630	494.702
801.758	488.125
801.887	482.481
802.015	491.760
802.143	479.163
802.271	482.183
802.399	474.067
802.527	473.587
802.655	482.952
802.783	473.731
802.912	473.442
803.040	470.808
803.168	469.721
803.296	475.010
803.424	460.731
803.552	464.173
803.680	465.452
803.808	464.587
803.937	457.394
804.065	462.183
804.193	459.115
804.321	467.933
804.449	470.212
804.577	456.288
804.705	473.096
804.833	453.356
804.962	447.125
805.090	451.106
805.218	442.760
805.346	436.837
805.474	451.096
805.602	449.952
805.730	449.990
805.858	434.663
805.987	436.087
806.115	431.683
806.243	438.202
806.371	431.596
806.499	428.817
806.627	420.923
806.755	428.212
806.883	432.385
807.012	418.673
807.140	428.135
807.268	417.577
807.396	425.885
807.524	418.327
807.652	425.481
807.780	415.154
807.908	410.019
808.037	429.558
808.165	422.798
808.293	404.625
808.421	411.933
808.549	403.788
808.677	408.404
808.805	423.413
808.933	405.519
809.062	403.865
809.190	417.308
809.318	410.490
809.446	397.365
809.574	412.625
809.702	402.115
809.830	393.625
809.958	402.942
810.087	394.192
810.215	392.808
810.343	397.433
810.471	394.029
810.599	384.337
810.727	391.923
810.855	387.798
810.983	384.096
811.112	384.529
811.240	382.817
811.368	385.952
811.496	386.288
811.624	384.279
811.752	381.519
811.880	400.827
812.008	384.019
812.137	387.019
812.265	374.423
812.393	376.452
812.521	369.433
812.649	369.481
812.777	363.356
812.905	379.933
813.033	375.413
813.162	366.663
813.290	365.971
813.418	367.750
813.546	361.673
813.674	360.779
813.802	364.587
813.930	356.596
814.058	354.856
814.187	361.913
814.315	356.933
814.443	354.962
814.571	356.423
814.699	351.096
814.827	356.365
814.955	355.913
815.083	348.038
815.212	353.971
815.340	348.067
815.468	356.702
815.596	344.144
815.724	351.673
815.852	354.913
815.980	346.962
816.108	343.798
816.237	345.269
816.365	353.577
816.493	343.029
816.621	349.144
816.749	335.125
816.877	399.837
817.005	355.135
817.133	350.615
817.262	337.423
817.390	327.231
817.518	345.846
817.646	328.423
817.774	323.750
817.902	323.760
818.030	326.548
818.158	334.577
818.287	327.760
818.415	327.500
818.543	328.692
818.671	324.471
818.799	326.673
818.927	314.740
819.055	348.308
819.183	329.231
819.312	336.490
819.440	324.587
819.568	317.875
819.696	320.125
819.824	324.894
819.952	317.375
820.080	314.298
820.208	312.288
820.337	321.990
820.465	314.000
820.593	309.173
820.721	307.615
820.849	312.913
820.977	308.087
821.105	317.817
821.233	306.154
821.362	315.346
821.490	300.798
821.618	312.606
821.746	315.125
821.874	303.846
822.002	296.962
822.130	307.846
822.258	305.788
822.387	304.779
822.515	309.538
822.643	297.471
822.771	302.087
822.899	309.096
823.027	293.192
823.155	301.529
823.283	317.692
823.412	309.125
823.540	291.904
823.668	289.663
823.796	297.654
823.924	294.615
824.052	297.212
824.180	302.192
824.308	298.154
824.437	305.625
824.565	296.635
824.693	286.385
824.821	286.885
824.949	295.269
825.077	289.500
825.205	283.096
825.333	286.740
825.462	290.779
825.590	282.885
825.718	280.683
825.846	288.135
825.974	286.087
826.102	282.635
826.230	288.769
826.358	290.548
826.487	285.644
826.615	283.721
826.743	277.962
826.871	289.327
826.999	279.923
827.127	283.231
827.255	282.471
827.383	275.144
827.512	273.288
827.640	282.798
827.768	296.385
827.896	267.394
828.024	276.683
828.152	277.298
828.280	278.885
828.408	270.298
828.537	276.163
828.665	274.077
828.793	278.115
828.921	270.933
829.049	275.442
829.177	277.375
829.305	270.625
829.433	267.740
829.562	271.442
829.690	270.567
829.818	271.577
829.946	265.192
830.074	267.971
830.202	261.846
830.330	273.635
830.458	257.644
830.587	272.490
830.715	260.615
830.843	256.962
830.971	269.510
831.099	268.260
831.227	290.221
831.355	259.240
831.483	262.663
831.612	262.779
831.740	257.135
831.868	260.269
831.996	266.587
832.124	260.212
832.252	267.173
832.380	263.202
832.508	258.250
832.637	259.865
832.765	265.952
832.893	262.856
833.021	252.433
833.149	254.173
833.277	262.279
833.405	263.288
833.533	249.048
833.662	255.308
833.790	252.596
833.918	255.192
834.046	252.817
834.174	250.904
834.302	257.202
834.430	249.731
834.558	247.721
834.687	259.894
834.815	252.269
834.943	247.212
835.071	252.538
835.199	254.635
835.327	249.885
835.455	254.385
835.583	248.202
835.712	244.558
835.840	251.048
835.968	245.087
836.096	253.490
836.224	249.413
836.352	250.567
836.480	243.538
836.608	243.510
836.737	245.500
836.865	245.817
836.993	249.865
837.121	253.635
837.249	246.673
837.377	242.327
837.505	237.548
837.633	242.173
837.762	245.212
837.890	242.817
838.018	241.327
838.146	238.808
838.274	237.971
838.402	240.404
838.530	254.663
838.658	244.731
838.787	247.519
838.915	235.817
839.043	246.077
839.171	239.308
839.299	236.904
839.427	263.298
839.555	244.529
839.683	235.279
839.812	238.442
839.940	235.933
840.068	239.010
840.196	263.038
840.324	256.683
840.452	242.327
840.580	236.038
840.708	229.346
840.837	235.885
840.965	238.394
841.093	234.375
841.221	230.500
841.349	230.923
841.477	227.606
841.605	228.827
841.733	231.875
841.862	238.587
841.990	228.375
842.118	231.827
842.246	228.837
842.374	224.856
842.502	239.144
842.630	229.885
842.758	224.769
842.887	236.990
843.015	242.904
843.143	222.808
843.271	226.337
843.399	228.202
843.527	231.875
843.655	224.683
843.783	228.731
843.912	223.048
844.040	225.163
844.168	228.490
844.296	237.942
844.424	235.548
844.552	231.779
844.680	229.865
844.808	225.375
844.937	226.538
845.065	225.019
845.193	237.856
845.321	227.596
845.449	234.010
845.577	227.577
845.705	221.538
845.833	224.288
845.962	232.712
846.090	222.615
846.218	235.740
846.346	226.010
846.474	227.125
846.602	217.894
846.730	225.904
846.858	222.221
846.987	215.423
847.115	233.327
847.243	226.962
847.371	214.144
847.499	218.308
847.627	219.981
847.755	219.115
847.883	231.577
848.012	229.077
848.140	215.596
848.268	215.942
848.396	220.442
848.524	231.231
848.652	217.808
848.780	215.692
848.908	222.558
849.037	220.663
849.165	215.173
849.293	226.125
849.421	216.904
849.549	218.625
849.677	219.375
849.805	224.923
849.933	217.212
850.062	223.654
850.190	214.788
850.318	214.096
850.446	223.337
850.574	215.327
850.702	213.981
850.830	210.385
850.958	215.115
851.087	223.212
851.215	211.817
851.343	215.587
851.471	219.192
851.599	224.173
851.727	229.942
851.855	217.750
851.983	220.798
852.112	214.933
852.240	222.173
852.368	224.548
852.496	214.221
852.624	220.519
852.752	221.260
852.880	217.779
853.008	222.500
853.137	215.000
853.265	216.885
853.393	215.885
853.521	211.731
853.649	220.606
853.777	215.135
853.905	207.952
854.033	207.721
854.162	209.404
854.290	210.250
854.418	226.115
854.546	238.365
854.674	229.471
854.802	215.519
854.930	208.173
855.058	215.615
855.187	207.856
855.315	235.856
855.443	211.106
855.571	208.221
855.699	219.365
855.827	200.971
855.955	213.942
856.083	211.548
856.212	212.702
856.340	214.510
856.468	213.692
856.596	211.740
856.724	214.712
856.852	223.587
856.980	209.904
857.108	204.337
857.237	202.087
857.365	216.010
857.493	212.894
857.621	207.923
857.749	204.327
857.877	202.567
858.005	203.731
858.133	207.644
858.262	209.558
858.390	205.404
858.518	204.231
858.646	214.567
858.774	199.683
858.902	208.087
859.030	210.221
859.158	211.673
859.287	212.567
859.415	209.615
859.543	206.760
859.671	209.385
859.799	217.875
859.927	202.740
860.055	201.029
860.183	200.606
860.312	201.519
860.440	207.923
860.568	198.154
860.696	214.923
860.824	216.548
860.952	201.337
861.080	204.615
861.208	210.365
861.337	201.644
861.465	209.837
861.593	205.308
861.721	210.000
861.849	206.279
861.977	200.404
862.105	207.567
862.233	203.077
862.362	203.038
862.490	203.692
862.618	201.635
862.746	203.231
862.874	206.663
863.002	209.077
863.130	208.952
863.258	206.077
863.387	206.577
863.515	207.798
863.643	209.144
863.771	207.721
863.899	207.260
864.027	206.606
864.155	229.173
864.283	206.308
864.412	199.663
864.540	208.750
864.668	196.192
864.796	202.192
864.924	203.808
865.052	195.183
865.180	215.269
865.308	202.490
865.437	205.144
865.565	196.000
865.693	199.538
865.821	195.144
865.949	220.433
866.077	207.500
866.205	200.212
866.333	207.788
866.462	193.933
866.590	206.231
866.718	203.731
866.846	196.317
866.974	201.202
867.102	196.567
867.230	208.808
867.358	201.788
867.487	208.269
867.615	210.731
867.743	196.385
867.871	209.731
867.999	200.317
868.127	211.260
868.255	215.865
868.383	189.250
868.512	204.250
868.640	200.606
868.768	199.260
868.896	211.692
869.024	201.500
869.152	201.221
869.280	200.615
869.408	196.606
869.537	196.962
869.665	196.029
869.793	203.577
869.921	199.298
870.049	194.712
870.177	201.760
870.305	195.606
870.433	201.519
870.562	204.038
870.690	199.317
870.818	208.096
870.946	195.596
871.074	193.240
871.202	200.721
871.330	196.644
871.458	201.067
871.587	200.587
871.715	201.394
871.843	203.115
871.971	206.288
872.099	192.885
872.227	201.731
872.355	197.644
872.483	195.029
872.612	202.231
872.740	196.548
872.868	195.288
872.996	201.990
873.124	208.212
873.252	195.356
873.380	194.702
873.508	205.644
873.637	204.173
873.765	195.327
873.893	197.635
874.021	200.683
874.149	193.308
874.277	195.971
874.405	202.221
874.533	202.202
874.662	193.087
874.790	203.760
874.918	195.048
875.046	205.087
875.174	195.519
875.302	195.712
875.430	195.279
875.558	200.375
875.687	202.663
875.815	195.875
875.943	204.990
876.071	200.702
876.199	199.500
876.327	200.096
876.455	200.904
876.583	193.933
876.712	203.683
876.840	200.529
876.968	198.548
877.096	201.885
877.224	199.346
877.352	191.962
877.480	199.231
877.608	207.231
877.737	200.625
877.865	191.087
877.993	201.587
878.121	203.250
878.249	198.952
878.377	194.952
878.505	198.644
878.633	201.125
878.762	197.115
878.890	196.202
879.018	202.760
879.146	193.750
879.274	223.173
879.402	200.885
879.530	196.615
879.658	197.740
879.787	197.337
879.915	197.856
880.043	194.202
880.171	230.183
880.299	196.567
880.427	200.567
880.555	193.510
880.683	200.990
880.812	198.029
880.940	197.192
881.068	203.519
881.196	196.442
881.324	194.413
881.452	190.760
881.580	200.692
881.708	200.038
881.837	201.067
881.965	204.212
882.093	191.837
882.221	195.154
882.349	193.865
882.477	196.481
882.605	195.606
882.733	204.346
882.862	190.010
882.990	207.375
883.118	201.904
883.246	203.654
883.374	197.548
883.502	202.962
883.630	201.548
883.758	196.394
883.887	202.769
884.015	201.875
884.143	201.231
884.271	195.394
884.399	189.442
884.527	199.192
884.655	196.692
884.783	199.760
884.912	221.769
885.040	199.865
885.168	190.615
885.296	205.183
885.424	197.250
885.552	199.587
885.680	209.317
885.808	204.125
885.937	205.731
886.065	207.221
886.193	195.365
886.321	196.962
886.449	192.529
886.577	196.712
886.705	206.394
886.833	188.692
886.962	199.904
887.090	202.231
887.218	191.087
887.346	197.337
887.474	192.212
887.602	195.692
887.730	194.048
887.858	192.721
887.987	191.635
888.115	196.192
888.243	197.587
888.371	209.029
888.499	197.087
888.627	197.202
888.755	200.154
888.883	196.413
889.012	197.154
889.140	192.952
889.268	202.577
889.396	187.125
889.524	205.423
889.652	188.096
889.780	193.452
889.908	195.337
890.037	202.952
890.165	192.337
890.293	200.192
890.421	200.490
890.549	189.462
890.677	189.231
890.805	198.048
890.933	193.365
891.062	194.952
891.190	199.212
891.318	188.731
891.446	194.365
891.574	186.394
891.702	191.144
891.830	196.038
891.958	206.346
892.087	204.519
892.215	198.125
892.343	201.212
892.471	202.548
892.599	187.192
892.727	195.952
892.855	213.250
892.983	188.846
893.112	193.625
893.240	203.173
893.368	190.788
893.496	204.558
893.624	196.058
893.752	214.577
893.880	202.808
894.008	196.779
894.137	193.173
894.265	198.548
894.393	192.673
894.521	202.779
894.649	196.471
894.777	187.240
894.905	233.635
895.033	193.500
895.162	195.702
895.290	201.394
895.418	193.750
895.546	227.327
895.674	199.673
895.802	235.606
895.930	196.413
896.058	192.817
896.187	199.519
896.315	186.837
896.443	204.625
896.571	214.721
896.699	191.712
896.827	191.788
896.955	197.221
897.083	195.894
897.212	193.423
897.340	193.250
897.468	192.846
897.596	193.413
897.724	190.567
897.852	190.779
897.980	188.692
898.108	194.635
898.237	190.221
898.365	191.548
898.493	195.269
898.621	192.433
898.749	192.587
898.877	195.933
899.005	190.404
899.133	192.538
899.262	206.760
899.390	190.433
899.518	195.337
899.646	190.462
899.774	185.644
899.902	186.981
900.030	202.308
900.158	192.144
900.287	194.452
900.415	188.721
900.543	193.875
900.671	199.837
900.799	191.702
900.927	186.654
901.055	198.856
901.183	201.221
901.312	198.769
901.440	187.519
901.568	186.788
901.696	187.625
901.824	188.029
901.952	187.740
902.080	198.173
902.208	192.038
902.337	199.154
902.465	190.019
902.593	203.365
902.721	213.404
902.849	211.135
902.977	194.298
903.105	191.596
903.233	191.865
903.362	184.712
903.490	194.471
903.618	192.442
903.746	185.375
903.874	194.010
904.002	190.202
904.130	197.808
904.258	187.500
904.387	196.740
904.515	185.538
904.643	198.750
904.771	188.837
904.899	188.269
905.027	197.135
905.155	187.260
905.283	184.587
905.412	205.558
905.540	188.654
905.668	191.875
905.796	189.904
905.924	191.125
906.052	191.923
906.180	195.750
906.308	192.413
906.437	186.173
906.565	192.500
906.693	198.077
906.821	183.577
906.949	190.010
907.077	184.327
907.205	196.817
907.333	179.827
907.462	183.577
907.590	188.962
907.718	189.240
907.846	195.625
907.974	185.769
908.102	187.606
908.230	195.202
908.358	186.096
908.487	180.971
908.615	199.625
908.743	196.923
908.871	190.663
908.999	185.808
909.127	190.952
909.255	200.548
909.383	185.529
909.512	184.115
909.640	198.163
909.768	187.529
909.896	193.356
910.024	197.212
910.152	195.933
910.280	198.933
910.408	184.000
910.537	187.462
910.665	195.750
910.793	191.721
910.921	191.548
911.049	203.327
911.177	199.019
911.305	191.394
911.433	215.462
911.562	194.067
911.690	195.538
911.818	194.115
911.946	193.471
912.074	195.865
912.202	187.442
912.330	208.625
912.458	183.269
912.587	192.404
912.715	193.538
912.843	205.788
912.971	196.087
913.099	205.625
913.227	203.712
913.355	202.837
913.483	209.942
913.612	204.019
913.740	224.558
913.868	201.462
