70_70_90_Pol_at_750.00nm_cut_at_1179.00Y_01.dat
03.07.2023
11:08:26
cut middle at Y: 1179.00
top cursor: 1231 down cursor: 1127 mean of: 104 lines , 2560 datapoints
wavelength(nm)	intensity[arb. units]
585.996	9845.673
586.124	9656.615
586.252	9646.529
586.380	9694.433
586.508	9695.788
586.637	9770.394
586.765	9748.375
586.893	9787.394
587.021	9790.606
587.149	9781.221
587.277	9808.279
587.405	9802.298
587.533	9855.625
587.662	9919.221
587.790	9839.365
587.918	9847.635
588.046	9836.923
588.174	9879.808
588.302	9855.558
588.430	9854.933
588.558	9849.163
588.687	9898.067
588.815	9898.087
588.943	9895.087
589.071	9884.019
589.199	9866.394
589.327	9876.356
589.455	9960.202
589.583	9886.606
589.712	9884.971
589.840	9842.135
589.968	9884.135
590.096	9902.490
590.224	9866.212
590.352	9935.029
590.480	9866.260
590.608	9880.115
590.737	9905.933
590.865	9981.260
590.993	9869.423
591.121	9897.837
591.249	9881.000
591.377	9878.490
591.505	9975.279
591.633	9878.913
591.762	9881.308
591.890	9893.856
592.018	9989.471
592.146	9892.288
592.274	9909.442
592.402	9874.365
592.530	10104.827
592.658	9970.279
592.787	9983.038
592.915	10018.240
593.043	9913.154
593.171	9993.154
593.299	9979.500
593.427	9948.423
593.555	9998.058
593.683	10017.952
593.812	10029.798
593.940	10043.212
594.068	10064.394
594.196	10046.298
594.324	10062.654
594.452	10241.577
594.580	10111.942
594.708	10184.625
594.837	10163.337
594.965	10220.856
595.093	10159.519
595.221	10204.192
595.349	10225.096
595.477	10256.538
595.605	10268.423
595.733	10259.212
595.862	10280.317
595.990	10315.962
596.118	10361.385
596.246	10408.394
596.374	10335.096
596.502	10367.731
596.630	10391.519
596.758	10368.433
596.887	10358.567
597.015	10385.087
597.143	10387.173
597.271	10389.010
597.399	10435.000
597.527	10410.952
597.655	10428.212
597.783	10437.481
597.912	10402.750
598.040	10439.279
598.168	10411.192
598.296	10366.413
598.424	10579.096
598.552	10397.596
598.680	10431.096
598.808	10472.029
598.937	10430.212
599.065	10429.288
599.193	10476.644
599.321	10462.269
599.449	10401.846
599.577	10425.173
599.705	10429.048
599.833	10385.000
599.962	10310.673
600.090	10394.356
600.218	10378.865
600.346	10376.442
600.474	10373.308
600.602	10334.087
600.730	10336.750
600.858	10347.327
600.987	10414.260
601.115	10356.962
601.243	10427.385
601.371	10468.606
601.499	10441.990
601.627	10391.798
601.755	10382.981
601.883	10410.115
602.012	10322.933
602.140	10465.587
602.268	10426.433
602.396	10540.721
602.524	10431.231
602.652	10495.567
602.780	10511.567
602.908	10517.615
603.037	10583.038
603.165	10572.837
603.293	10590.260
603.421	10598.106
603.549	10558.875
603.677	10655.500
603.805	10626.067
603.933	10659.971
604.062	10732.904
604.190	10762.481
604.318	10773.269
604.446	10760.567
604.574	10839.154
604.702	10848.394
604.830	10790.769
604.958	10809.721
605.087	10894.231
605.215	10903.115
605.343	11016.558
605.471	11002.587
605.599	10983.587
605.727	11086.856
605.855	11054.423
605.983	11086.462
606.112	11122.240
606.240	11142.192
606.368	11152.462
606.496	11088.298
606.624	11225.606
606.752	11156.202
606.880	11230.856
607.008	11179.115
607.137	11168.779
607.265	11327.558
607.393	11259.894
607.521	11365.279
607.649	11218.192
607.777	11286.788
607.905	11305.404
608.033	11237.500
608.162	11263.192
608.290	11270.567
608.418	11382.913
608.546	11316.125
608.674	11326.250
608.802	11275.923
608.930	11276.337
609.058	11238.442
609.187	11250.135
609.315	11252.846
609.443	11226.058
609.571	11327.663
609.699	11193.615
609.827	11285.635
609.955	11214.462
610.083	11200.000
610.212	11195.346
610.340	11133.788
610.468	11173.260
610.596	11175.356
610.724	11126.846
610.852	11228.010
610.980	11183.298
611.108	11119.865
611.237	11138.827
611.365	11157.375
611.493	11116.413
611.621	11112.125
611.749	11157.279
611.877	11204.000
612.005	11148.192
612.133	11175.740
612.262	11166.192
612.390	11240.663
612.518	11226.577
612.646	11152.288
612.774	11257.990
612.902	11246.462
613.030	11196.192
613.158	11206.625
613.287	11299.481
613.415	11183.760
613.543	11244.933
613.671	11226.212
613.799	11244.692
613.927	11253.144
614.055	11266.933
614.183	11261.154
614.312	11250.846
614.440	11428.125
614.568	11329.221
614.696	11374.058
614.824	11318.558
614.952	11407.452
615.080	11378.192
615.208	11426.038
615.337	11494.519
615.465	11392.192
615.593	11466.394
615.721	11444.144
615.849	11577.260
615.977	11526.019
616.105	11500.163
616.233	11530.875
616.362	11558.731
616.490	11542.288
616.618	11588.702
616.746	11693.885
616.874	11641.385
617.002	11643.298
617.130	11649.106
617.258	11613.481
617.387	11596.558
617.515	11658.923
617.643	11639.933
617.771	11724.000
617.899	11667.769
618.027	11711.683
618.155	11716.192
618.283	11710.337
618.412	11697.942
618.540	11778.125
618.668	11709.452
618.796	11746.567
618.924	11689.683
619.052	11748.731
619.180	11715.173
619.308	11732.779
619.437	11688.538
619.565	11706.375
619.693	11685.269
619.821	11709.760
619.949	11673.298
620.077	11703.721
620.205	11753.731
620.333	11732.404
620.462	11659.288
620.590	11704.288
620.718	11724.298
620.846	11722.365
620.974	11724.298
621.102	11736.269
621.230	11702.279
621.358	11842.654
621.487	11687.750
621.615	11735.923
621.743	11639.183
621.871	11761.183
621.999	11630.798
622.127	11673.702
622.255	11626.279
622.383	11599.788
622.512	11621.250
622.640	11586.106
622.768	11646.923
622.896	11690.288
623.024	11652.163
623.152	11625.490
623.280	11725.337
623.408	11624.500
623.537	11666.423
623.665	11582.692
623.793	11653.442
623.921	11651.885
624.049	11608.721
624.177	11636.721
624.305	11590.288
624.433	11641.971
624.562	11588.788
624.690	11736.971
624.818	11523.587
624.946	11562.106
625.074	11540.558
625.202	11525.096
625.330	11556.865
625.458	11652.702
625.587	11525.106
625.715	11625.587
625.843	11561.231
625.971	11589.942
626.099	11594.606
626.227	11594.413
626.355	11500.058
626.483	11610.288
626.612	11527.904
626.740	11571.587
626.868	11566.183
626.996	11625.529
627.124	11575.654
627.252	11580.269
627.380	11556.596
627.508	11519.971
627.637	11580.865
627.765	11575.202
627.893	11604.962
628.021	11664.038
628.149	11567.231
628.277	11639.481
628.405	11569.538
628.533	11566.673
628.662	11608.260
628.790	11687.760
628.918	11591.913
629.046	11731.683
629.174	11611.760
629.302	11605.933
629.430	11555.529
629.558	11611.567
629.687	11530.654
629.815	11627.635
629.943	11718.356
630.071	11663.462
630.199	11631.558
630.327	11665.173
630.455	11677.288
630.583	11648.808
630.712	11658.125
630.840	11651.731
630.968	11653.558
631.096	11688.904
631.224	11662.712
631.352	11776.654
631.480	11663.808
631.608	11839.846
631.737	11651.894
631.865	11802.923
631.993	11769.490
632.121	11873.817
632.249	11750.923
632.377	11727.846
632.505	11680.481
632.633	11761.942
632.762	11692.615
632.890	11705.202
633.018	11722.529
633.146	11689.231
633.274	11651.048
633.402	11710.837
633.530	11680.942
633.658	11650.981
633.787	11687.058
633.915	11678.135
634.043	11674.644
634.171	11656.212
634.299	11679.837
634.427	11632.413
634.555	11844.798
634.683	11626.433
634.812	11655.317
634.940	11596.673
635.068	11609.240
635.196	11581.769
635.324	11548.827
635.452	11567.904
635.580	11634.058
635.708	11524.442
635.837	11560.346
635.965	11536.548
636.093	11481.577
636.221	11469.404
636.349	11410.163
636.477	11419.452
636.605	11475.442
636.733	11387.798
636.862	11357.904
636.990	11350.856
637.118	11355.856
637.246	11300.471
637.374	11424.288
637.502	11251.144
637.630	11237.087
637.758	11222.923
637.887	11166.269
638.015	11289.365
638.143	11192.760
638.271	11133.740
638.399	11133.000
638.527	11083.663
638.655	11071.135
638.783	11074.375
638.912	11116.240
639.040	11015.837
639.168	10943.817
639.296	10935.260
639.424	11033.827
639.552	10975.058
639.680	10995.990
639.808	10943.038
639.937	10913.817
640.065	10862.308
640.193	10886.692
640.321	10931.471
640.449	10922.038
640.577	10860.740
640.705	10861.587
640.833	10830.346
640.962	10908.673
641.090	10789.452
641.218	10819.779
641.346	10878.702
641.474	10815.750
641.602	10786.471
641.730	10754.923
641.858	10730.471
641.987	10762.442
642.115	10923.712
642.243	10769.615
642.371	10901.654
642.499	10729.558
642.627	10819.683
642.755	10739.029
642.883	10751.115
643.012	10731.269
643.140	10778.933
643.268	10778.952
643.396	10683.529
643.524	10702.471
643.652	10784.067
643.780	10692.567
643.908	10649.913
644.037	10765.010
644.165	10756.683
644.293	10844.192
644.421	10677.971
644.549	10710.596
644.677	10709.173
644.805	10646.519
644.933	10634.500
645.062	10665.760
645.190	10815.952
645.318	10693.173
645.446	10626.356
645.574	10611.529
645.702	10629.500
645.830	10631.981
645.958	10598.125
646.087	10560.000
646.215	10519.183
646.343	10568.087
646.471	10677.106
646.599	10536.404
646.727	10502.827
646.855	10525.308
646.983	10510.183
647.112	10581.192
647.240	10493.346
647.368	10534.087
647.496	10494.500
647.624	10458.942
647.752	10434.481
647.880	10391.010
648.008	10406.433
648.137	10456.962
648.265	10376.740
648.393	10474.923
648.521	10385.038
648.649	10495.712
648.777	10439.798
648.905	10358.962
649.033	10404.615
649.162	10278.567
649.290	10197.885
649.418	10265.587
649.546	10415.356
649.674	10205.212
649.802	10196.356
649.930	10186.654
650.058	10127.740
650.187	10184.519
650.315	10096.769
650.443	10131.192
650.571	10061.990
650.699	10042.885
650.827	10042.971
650.955	9996.510
651.083	10032.721
651.212	9949.538
651.340	9968.087
651.468	9905.317
651.596	9920.808
651.724	9921.240
651.852	9840.827
651.980	9848.548
652.108	9845.644
652.237	9806.019
652.365	9782.019
652.493	9753.279
652.621	9724.731
652.749	9730.490
652.877	9687.279
653.005	9716.125
653.133	9657.788
653.262	9637.356
653.390	9611.288
653.518	9736.894
653.646	9565.288
653.774	9535.692
653.902	9602.308
654.030	9522.885
654.158	9494.423
654.287	9504.221
654.415	9475.663
654.543	9493.644
654.671	9438.279
654.799	9427.519
654.927	9406.894
655.055	9331.625
655.183	9349.096
655.312	9309.615
655.440	9289.577
655.568	9287.510
655.696	9335.548
655.824	9251.221
655.952	9231.327
656.080	9199.115
656.208	9210.067
656.337	9214.096
656.465	9335.788
656.593	9163.769
656.721	9219.769
656.849	9259.365
656.977	8999.433
657.105	9068.731
657.233	9070.212
657.362	9120.500
657.490	9057.663
657.618	9066.990
657.746	9059.317
657.874	8931.740
658.002	8930.077
658.130	8850.490
658.258	8855.577
658.387	8815.058
658.515	8778.510
658.643	8751.519
658.771	8818.606
658.899	8718.510
659.027	8758.654
659.155	8745.990
659.283	8692.067
659.412	8674.231
659.540	8654.952
659.668	8677.462
659.796	8735.240
659.924	8673.587
660.052	8731.625
660.180	8627.923
660.308	8725.567
660.437	8734.500
660.565	8627.433
660.693	8533.827
660.821	8706.202
660.949	8518.558
661.077	8538.615
661.205	8656.231
661.333	8521.058
661.462	8490.942
661.590	8594.125
661.718	8474.837
661.846	8470.692
661.974	8464.375
662.102	8426.558
662.230	8436.606
662.358	8332.942
662.487	8384.837
662.615	8350.952
662.743	8374.769
662.871	8347.394
662.999	8276.212
663.127	8260.817
663.255	8256.635
663.383	8373.779
663.512	8169.221
663.640	8237.596
663.768	8249.885
663.896	8156.654
664.024	8178.163
664.152	8175.192
664.280	8204.817
664.408	8128.587
664.537	8111.067
664.665	8139.788
664.793	8109.827
664.921	8063.385
665.049	8121.163
665.177	8015.702
665.305	8032.750
665.433	8025.279
665.562	8171.115
665.690	8030.442
665.818	8158.885
665.946	7957.962
666.074	7932.462
666.202	7945.019
666.330	7884.250
666.458	8288.327
666.587	7876.365
666.715	7887.837
666.843	7820.269
666.971	7866.125
667.099	7862.712
667.227	7890.096
667.355	7888.308
667.483	7804.625
667.612	7849.077
667.740	7797.327
667.868	7765.894
667.996	7744.365
668.124	7777.731
668.252	7850.904
668.380	7718.567
668.508	7712.115
668.637	7702.058
668.765	7702.250
668.893	7698.971
669.021	7602.779
669.149	7706.981
669.277	7549.385
669.405	7684.625
669.533	7669.413
669.662	7572.885
669.790	7561.087
669.918	7618.654
670.046	7703.471
670.174	7482.163
670.302	7484.904
670.430	7454.471
670.558	7510.375
670.687	7631.731
670.815	7431.712
670.943	7487.519
671.071	7345.760
671.199	7328.481
671.327	7366.452
671.455	7386.048
671.583	7332.606
671.712	7307.298
671.840	7365.750
671.968	7445.308
672.096	7401.096
672.224	7229.779
672.352	7204.308
672.480	7150.635
672.608	7218.221
672.737	7147.510
672.865	7093.212
672.993	7083.510
673.121	7096.462
673.249	7054.423
673.377	7008.125
673.505	6989.885
673.633	7051.558
673.762	6988.413
673.890	6977.231
674.018	6991.654
674.146	6932.346
674.274	6904.442
674.402	6957.538
674.530	6899.413
674.658	6836.394
674.787	6841.087
674.915	6974.462
675.043	6825.087
675.171	6825.096
675.299	6763.038
675.427	6712.433
675.555	6704.327
675.683	6742.029
675.812	6665.981
675.940	6651.779
676.068	6608.519
676.196	6660.846
676.324	6596.933
676.452	6533.971
676.580	6507.269
676.708	6509.683
676.837	6493.173
676.965	6587.904
677.093	6623.760
677.221	6500.721
677.349	6441.240
677.477	6477.288
677.605	6364.346
677.733	6373.346
677.862	6383.865
677.990	6345.548
678.118	6385.375
678.246	6320.856
678.374	6359.048
678.502	6269.500
678.630	6230.587
678.758	6226.933
678.887	6365.221
679.015	6142.096
679.143	6120.135
679.271	6125.038
679.399	6120.500
679.527	6134.385
679.655	6167.962
679.783	6040.587
679.912	6049.192
680.040	6219.192
680.168	6017.567
680.296	6043.615
680.424	5990.221
680.552	6007.471
680.680	5949.798
680.808	5907.548
680.937	5865.356
681.065	5935.058
681.193	5861.962
681.321	5853.106
681.449	5881.135
681.577	5827.240
681.705	5809.519
681.833	5839.779
681.962	5799.144
682.090	5759.394
682.218	5772.500
682.346	5791.894
682.474	5707.010
682.602	5708.769
682.730	5733.875
682.858	5670.337
682.987	5684.577
683.115	5701.135
683.243	5659.913
683.371	5641.990
683.499	5601.856
683.627	5655.875
683.755	5583.673
683.883	5561.510
684.012	5608.731
684.140	5544.692
684.268	5548.731
684.396	5605.135
684.524	5506.231
684.652	5546.269
684.780	5544.779
684.908	5530.760
685.037	5525.212
685.165	5491.385
685.293	5553.846
685.421	5483.038
685.549	5473.779
685.677	5407.192
685.805	5479.923
685.933	5428.442
686.062	5412.202
686.190	5378.365
686.318	5393.048
686.446	5358.510
686.574	5321.529
686.702	5383.933
686.830	5292.904
686.958	5394.644
687.087	5273.452
687.215	5300.692
687.343	5281.894
687.471	5422.404
687.599	5220.125
687.727	5181.596
687.855	5180.202
687.983	5128.885
688.112	5226.481
688.240	5147.779
688.368	5190.125
688.496	5115.269
688.624	5095.135
688.752	5260.385
688.880	5124.125
689.008	5093.038
689.137	5077.894
689.265	5007.423
689.393	5031.404
689.521	5028.327
689.649	5108.837
689.777	5048.317
689.905	5083.144
690.033	4947.462
690.162	4959.577
690.290	4981.394
690.418	4917.413
690.546	4972.577
690.674	4961.837
690.802	4981.462
690.930	4916.577
691.058	4889.529
691.187	4862.529
691.315	4842.481
691.443	4814.394
691.571	4862.221
691.699	4768.317
691.827	4777.894
691.955	4777.212
692.083	4745.279
692.212	4755.462
692.340	4731.183
692.468	4769.837
692.596	4742.615
692.724	4708.644
692.852	4741.933
692.980	4721.144
693.108	4723.971
693.237	4635.019
693.365	4638.087
693.493	4617.760
693.621	4615.769
693.749	4569.894
693.877	4626.058
694.005	4541.375
694.133	4537.462
694.262	4601.096
694.390	4489.663
694.518	4507.721
694.646	4504.471
694.774	4439.971
694.902	4455.298
695.030	4462.231
695.158	4439.548
695.287	4419.894
695.415	4415.712
695.543	4404.846
695.671	4355.769
695.799	4477.019
695.927	4357.635
696.055	4349.365
696.183	4304.587
696.312	4470.933
696.440	4316.096
696.568	4306.346
696.696	4225.135
696.824	4204.019
696.952	4189.163
697.080	4213.423
697.208	4139.846
697.337	4173.644
697.465	4162.760
697.593	4114.481
697.721	4208.644
697.849	4093.144
697.977	4124.769
698.105	4158.106
698.233	4083.577
698.362	4027.308
698.490	4149.615
698.618	3993.490
698.746	3982.365
698.874	4055.413
699.002	4008.327
699.130	4011.731
699.258	3969.587
699.387	3901.452
699.515	3950.010
699.643	3941.298
699.771	4005.567
699.899	3886.673
700.027	3835.635
700.155	3907.933
700.283	3782.885
700.412	3807.654
700.540	3838.000
700.668	3865.875
700.796	3779.394
700.924	3816.721
701.052	3800.452
701.180	3791.087
701.308	3722.077
701.437	3679.529
701.565	3682.740
701.693	3728.654
701.821	3847.490
701.949	3632.231
702.077	3654.356
702.205	3723.413
702.333	3616.904
702.462	3605.644
702.590	3651.327
702.718	3539.212
702.846	3724.702
702.974	3515.231
703.102	3507.567
703.230	3550.394
703.358	3493.183
703.487	3487.029
703.615	3482.673
703.743	3455.750
703.871	3445.635
703.999	3420.865
704.127	3431.413
704.255	3377.750
704.383	3411.596
704.512	3469.154
704.640	3429.750
704.768	3477.010
704.896	3336.048
705.024	3303.740
705.152	3316.952
705.280	3380.894
705.408	3269.712
705.537	3271.798
705.665	3277.817
705.793	3245.490
705.921	3241.760
706.049	3197.269
706.177	3237.308
706.305	3159.952
706.433	3236.058
706.562	3196.260
706.690	3198.865
706.818	3194.817
706.946	3114.692
707.074	3109.000
707.202	3069.683
707.330	3096.106
707.458	3075.144
707.587	3063.048
707.715	3078.452
707.843	3083.327
707.971	3075.846
708.099	2994.981
708.227	2993.250
708.355	2990.394
708.483	2961.260
708.612	2990.058
708.740	2932.913
708.868	2937.404
708.996	3005.894
709.124	2986.221
709.252	2946.731
709.380	2957.202
709.508	2902.125
709.637	2911.856
709.765	2881.731
709.893	2900.740
710.021	2856.538
710.149	2968.385
710.277	2804.683
710.405	2825.442
710.533	2842.144
710.662	2787.808
710.790	2936.577
710.918	2760.846
711.046	2819.683
711.174	2777.587
711.302	2786.731
711.430	2745.692
711.558	2806.452
711.687	2774.346
711.815	2740.500
711.943	2697.644
712.071	2712.952
712.199	2755.817
712.327	2807.260
712.455	2680.154
712.583	2853.019
712.712	2707.163
712.840	2726.067
712.968	2672.942
713.096	2661.365
713.224	2642.856
713.352	2631.288
713.480	2612.385
713.608	2595.625
713.737	2592.846
713.865	2643.615
713.993	2607.769
714.121	2596.635
714.249	2583.673
714.377	2578.260
714.505	2567.548
714.633	2561.587
714.762	2562.740
714.890	2557.240
715.018	2565.558
715.146	2582.663
715.274	2536.875
715.402	2523.625
715.530	2540.625
715.658	2534.087
715.787	2521.433
715.915	2545.644
716.043	2508.096
716.171	2519.058
716.299	2493.904
716.427	2513.702
716.555	2479.413
716.683	2475.846
716.812	2471.846
716.940	2472.087
717.068	2450.923
717.196	2488.837
717.324	2455.596
717.452	2437.135
717.580	2456.260
717.708	2410.923
717.837	2413.606
717.965	2392.712
718.093	2412.779
718.221	2393.183
718.349	2386.644
718.477	2392.913
718.605	2383.558
718.733	2376.279
718.862	2361.058
718.990	2364.923
719.118	2367.702
719.246	2336.673
719.374	2324.442
719.502	2307.798
719.630	2311.269
719.758	2292.981
719.887	2287.452
720.015	2280.808
720.143	2279.058
720.271	2259.981
720.399	2276.019
720.527	2254.144
720.655	2256.106
720.783	2250.933
720.912	2227.144
721.040	2211.712
721.168	2224.981
721.296	2183.462
721.424	2208.692
721.552	2189.510
721.680	2179.721
721.808	2190.558
721.937	2166.394
722.065	2155.135
722.193	2162.279
722.321	2156.712
722.449	2147.144
722.577	2123.846
722.705	2109.990
722.833	2098.490
722.962	2099.798
723.090	2081.240
723.218	2052.500
723.346	2074.952
723.474	2074.481
723.602	2049.433
723.730	2052.260
723.858	2033.731
723.987	2061.519
724.115	2037.365
724.243	2041.423
724.371	2005.442
724.499	2014.654
724.627	1995.154
724.755	1999.885
724.883	1980.865
725.012	1987.317
725.140	1981.279
725.268	1974.577
725.396	1928.625
725.524	1949.990
725.652	1935.981
725.780	1940.654
725.908	1929.808
726.037	1908.683
726.165	1903.433
726.293	1893.462
726.421	1877.606
726.549	1892.769
726.677	1865.327
726.805	1857.442
726.933	1859.933
727.062	1859.769
727.190	1830.413
727.318	1823.663
727.446	1829.779
727.574	1817.192
727.702	1788.462
727.830	1805.019
727.958	1807.337
728.087	1805.471
728.215	1779.817
728.343	1773.663
728.471	1757.577
728.599	1757.654
728.727	1754.673
728.855	1761.837
728.983	1739.183
729.112	1733.769
729.240	1715.490
729.368	1700.538
729.496	1716.567
729.624	1718.231
729.752	1705.038
729.880	1707.288
730.008	1702.298
730.137	1696.413
730.265	1680.510
730.393	1666.375
730.521	1653.606
730.649	1632.712
730.777	1630.596
730.905	1633.615
731.033	1596.808
731.162	1610.827
731.290	1618.913
731.418	1607.058
731.546	1599.500
731.674	1591.404
731.802	1592.721
731.930	1579.779
732.058	1547.846
732.187	1559.500
732.315	1574.385
732.443	1572.077
732.571	1567.587
732.699	1552.490
732.827	1564.635
732.955	1570.048
733.083	1540.000
733.212	1539.731
733.340	1549.644
733.468	1530.288
733.596	1507.125
733.724	1500.115
733.852	1501.596
733.980	1499.212
734.108	1497.173
734.237	1500.317
734.365	1486.288
734.493	1471.971
734.621	1479.952
734.749	1484.510
734.877	1463.452
735.005	1456.442
735.133	1467.346
735.262	1468.683
735.390	1437.500
735.518	1447.587
735.646	1453.750
735.774	1433.654
735.902	1431.654
736.030	1422.933
736.158	1418.808
736.287	1440.981
736.415	1426.788
736.543	1401.019
736.671	1389.394
736.799	1400.452
736.927	1402.481
737.055	1393.894
737.183	1381.154
737.312	1376.317
737.440	1378.942
737.568	1373.019
737.696	1383.000
737.824	1369.981
737.952	1585.788
738.080	1361.308
738.208	1349.192
738.337	1339.952
738.465	1345.798
738.593	1346.827
738.721	1324.423
738.849	1341.981
738.977	1315.423
739.105	1333.885
739.233	1317.798
739.362	1302.029
739.490	1306.885
739.618	1308.000
739.746	1301.865
739.874	1293.615
740.002	1288.058
740.130	1267.394
740.258	1271.529
740.387	1286.375
740.515	1289.077
740.643	1262.010
740.771	1263.760
740.899	1250.154
741.027	1247.798
741.155	1257.058
741.283	1242.913
741.412	1262.375
741.540	1242.788
741.668	1240.510
741.796	1235.904
741.924	1228.827
742.052	1219.788
742.180	1226.683
742.308	1208.731
742.437	1208.721
742.565	1213.077
742.693	1207.471
742.821	1207.683
742.949	1195.000
743.077	1177.385
743.205	1182.231
743.333	1178.558
743.462	1185.192
743.590	1169.115
743.718	1176.481
743.846	1164.644
743.974	1177.567
744.102	1164.692
744.230	1150.221
744.358	1154.365
744.487	1145.625
744.615	1131.067
744.743	1126.000
744.871	1137.462
744.999	1124.442
745.127	1135.779
745.255	1110.510
745.383	1121.385
745.512	1098.490
745.640	1096.654
745.768	1099.385
745.896	1097.183
746.024	1094.500
746.152	1095.202
746.280	1076.702
746.408	1087.644
746.537	1071.769
746.665	1096.221
746.793	1072.433
746.921	1061.894
747.049	1064.202
747.177	1068.365
747.305	1068.250
747.433	1063.327
747.562	1051.337
747.690	1057.337
747.818	1041.029
747.946	1049.048
748.074	1033.067
748.202	1026.308
748.330	1020.923
748.458	1016.712
748.587	1030.663
748.715	1025.558
748.843	1006.635
748.971	1010.788
749.099	1016.010
749.227	1010.933
749.355	1028.615
749.483	984.250
749.612	1013.606
749.740	995.779
749.868	989.106
749.996	981.865
750.124	999.625
750.252	976.413
750.380	970.702
750.508	985.837
750.637	973.019
750.765	973.885
750.893	973.048
751.021	958.577
751.149	969.231
751.277	949.817
751.405	946.442
751.533	961.798
751.662	936.933
751.790	926.221
751.918	933.712
752.046	929.154
752.174	915.327
752.302	917.721
752.430	909.856
752.558	907.846
752.687	917.308
752.815	905.212
752.943	904.740
753.071	900.298
753.199	904.913
753.327	911.500
753.455	893.327
753.583	886.615
753.712	877.904
753.840	892.692
753.968	875.673
754.096	883.385
754.224	877.990
754.352	856.923
754.480	882.202
754.608	862.788
754.737	859.712
754.865	870.567
754.993	862.865
755.121	858.971
755.249	834.952
755.377	824.721
755.505	841.327
755.633	829.712
755.762	836.750
755.890	849.731
756.018	833.202
756.146	815.808
756.274	819.933
756.402	819.894
756.530	838.558
756.658	820.596
756.787	797.808
756.915	802.212
757.043	788.904
757.171	804.913
757.299	797.952
757.427	791.154
757.555	781.760
757.683	786.712
757.812	789.962
757.940	781.423
758.068	779.606
758.196	774.240
758.324	772.394
758.452	776.192
758.580	770.404
758.708	767.288
758.837	773.885
758.965	770.567
759.093	755.481
759.221	745.846
759.349	744.240
759.477	741.231
759.605	737.433
759.733	743.327
759.862	730.298
759.990	737.731
760.118	725.788
760.246	739.058
760.374	725.144
760.502	729.635
760.630	712.519
760.758	709.740
760.887	710.058
761.015	711.346
761.143	709.144
761.271	707.587
761.399	705.596
761.527	709.990
761.655	707.596
761.783	684.202
761.912	693.106
762.040	698.596
762.168	679.615
762.296	674.452
762.424	689.865
762.552	690.567
762.680	665.971
762.808	690.385
762.937	677.894
763.065	663.644
763.193	663.596
763.321	660.962
763.449	655.692
763.577	642.788
763.705	666.971
763.833	664.288
763.962	649.712
764.090	639.404
764.218	639.904
764.346	628.356
764.474	637.317
764.602	635.779
764.730	641.731
764.858	635.433
764.987	634.721
765.115	628.769
765.243	616.981
765.371	629.875
765.499	612.115
765.627	613.731
765.755	615.452
765.883	614.269
766.012	610.529
766.140	604.144
766.268	606.173
766.396	608.865
766.524	606.769
766.652	594.817
766.780	601.913
766.908	600.913
767.037	607.962
767.165	592.183
767.293	592.010
767.421	591.875
767.549	578.923
767.677	606.029
767.805	573.712
767.933	576.933
768.062	566.135
768.190	575.817
768.318	571.144
768.446	564.298
768.574	559.183
768.702	564.904
768.830	564.010
768.958	557.029
769.087	562.365
769.215	559.769
769.343	555.337
769.471	566.837
769.599	559.471
769.727	547.913
769.855	543.096
769.983	577.462
770.112	540.163
770.240	536.490
770.368	533.125
770.496	533.394
770.624	539.587
770.752	531.712
770.880	535.904
771.008	527.558
771.137	529.817
771.265	515.365
771.393	516.212
771.521	514.163
771.649	528.750
771.777	555.240
771.905	566.183
772.033	549.615
772.162	506.519
772.290	514.250
772.418	515.750
772.546	508.702
772.674	507.096
772.802	503.827
772.930	511.606
773.058	502.260
773.187	503.663
773.315	492.913
773.443	498.750
773.571	496.750
773.699	491.827
773.827	502.385
773.955	510.385
774.083	496.875
774.212	489.163
774.340	490.529
774.468	478.913
774.596	480.096
774.724	483.856
774.852	486.010
774.980	479.029
775.108	478.433
775.237	470.894
775.365	473.346
775.493	468.048
775.621	469.962
775.749	475.058
775.877	468.952
776.005	474.385
776.133	463.692
776.262	468.298
776.390	464.183
776.518	449.798
776.646	465.635
776.774	459.481
776.902	447.221
777.030	447.817
777.158	449.731
777.287	461.808
777.415	444.462
777.543	452.260
777.671	447.635
777.799	451.087
777.927	444.433
778.055	449.365
778.183	436.087
778.312	436.462
778.440	441.433
778.568	464.231
778.696	442.798
778.824	445.769
778.952	440.769
779.080	438.683
779.208	431.962
779.337	438.048
779.465	444.000
779.593	430.173
779.721	431.394
779.849	435.683
779.977	432.173
780.105	431.865
780.233	425.615
780.362	432.106
780.490	416.635
780.618	428.058
780.746	422.721
780.874	419.856
781.002	420.163
781.130	414.702
781.258	410.317
781.387	423.462
781.515	416.692
781.643	408.769
781.771	411.625
781.899	426.952
782.027	411.125
782.155	406.279
782.283	402.644
782.412	408.577
782.540	410.779
782.668	409.712
782.796	402.019
782.924	418.202
783.052	418.087
783.180	400.298
783.308	403.731
783.437	398.279
783.565	408.385
783.693	400.298
783.821	406.115
783.949	401.923
784.077	393.673
784.205	403.587
784.333	391.067
784.462	400.712
784.590	389.500
784.718	386.481
784.846	398.750
784.974	408.894
785.102	382.481
785.230	387.183
785.358	385.202
785.487	383.837
785.615	385.106
785.743	378.260
785.871	390.740
785.999	384.231
786.127	389.202
786.255	380.058
786.383	378.029
786.512	375.125
786.640	374.885
786.768	371.615
786.896	377.077
787.024	361.990
787.152	372.654
787.280	385.519
787.408	375.692
787.537	376.692
787.665	371.856
787.793	359.913
787.921	364.471
788.049	359.875
788.177	363.279
788.305	366.144
788.433	365.538
788.562	353.385
788.690	351.298
788.818	362.173
788.946	356.760
789.074	351.817
789.202	352.865
789.330	352.692
789.458	360.433
789.587	351.510
789.715	355.260
789.843	354.788
789.971	351.173
790.099	348.029
790.227	337.231
790.355	346.923
790.483	350.712
790.612	347.596
790.740	349.625
790.868	340.981
790.996	362.010
791.124	354.894
791.252	349.750
791.380	340.462
791.508	344.683
791.637	344.808
791.765	333.779
791.893	339.750
792.021	348.231
792.149	339.327
792.277	339.606
792.405	330.067
792.533	338.769
792.662	331.587
792.790	333.635
792.918	341.587
793.046	332.587
793.174	334.260
793.302	336.798
793.430	326.635
793.558	337.356
793.687	327.490
793.815	323.673
793.943	344.856
794.071	317.385
794.199	322.952
794.327	329.894
794.455	332.260
794.583	325.913
794.712	325.538
794.840	321.029
794.968	325.538
795.096	330.298
795.224	314.394
795.352	354.635
795.480	308.837
795.608	313.356
795.737	313.923
795.865	309.981
795.993	318.615
796.121	316.077
796.249	309.000
796.377	311.106
796.505	313.010
796.633	315.019
796.762	309.240
796.890	305.106
797.018	307.067
797.146	315.981
797.274	315.567
797.402	308.673
797.530	303.019
797.658	300.923
797.787	319.365
797.915	310.067
798.043	299.644
798.171	306.615
798.299	297.029
798.427	307.740
798.555	314.000
798.683	302.394
798.812	331.625
798.940	341.567
799.068	329.625
799.196	307.885
799.324	305.856
799.452	294.365
799.580	294.606
799.708	296.587
799.837	289.615
799.965	288.750
800.093	293.894
800.221	287.904
800.349	290.192
800.477	283.798
800.605	284.077
800.733	298.692
800.862	286.510
800.990	286.779
801.118	285.346
801.246	290.788
801.374	291.865
801.502	285.221
801.630	283.346
801.758	283.865
801.887	279.500
802.015	289.596
802.143	275.413
802.271	277.240
802.399	274.106
802.527	271.000
802.655	275.173
802.783	280.875
802.912	272.712
803.040	275.404
803.168	273.635
803.296	279.250
803.424	271.327
803.552	277.423
803.680	270.394
803.808	273.962
803.937	268.606
804.065	277.154
804.193	274.894
804.321	288.712
804.449	282.279
804.577	274.481
804.705	287.817
804.833	272.933
804.962	264.000
805.090	270.904
805.218	262.029
805.346	261.654
805.474	271.125
805.602	275.135
805.730	277.288
805.858	255.365
805.987	260.779
806.115	259.846
806.243	267.087
806.371	263.433
806.499	265.712
806.627	254.337
806.755	258.731
806.883	263.308
807.012	255.865
807.140	263.413
807.268	251.029
807.396	256.183
807.524	253.644
807.652	261.971
807.780	255.913
807.908	256.173
808.037	270.308
808.165	259.846
808.293	249.423
808.421	253.183
808.549	248.683
808.677	251.317
808.805	264.356
808.933	252.029
809.062	248.981
809.190	262.010
809.318	256.538
809.446	248.288
809.574	258.875
809.702	245.144
809.830	241.788
809.958	254.048
810.087	249.740
810.215	246.865
810.343	254.154
810.471	252.058
810.599	246.644
810.727	249.519
810.855	241.000
810.983	246.904
811.112	246.038
811.240	241.769
811.368	245.529
811.496	249.596
811.624	245.096
811.752	244.154
811.880	256.769
812.008	247.894
812.137	255.904
812.265	242.538
812.393	244.625
812.521	233.010
812.649	244.567
812.777	233.183
812.905	248.481
813.033	247.481
813.162	234.673
813.290	238.856
813.418	238.683
813.546	241.365
813.674	238.231
813.802	236.135
813.930	235.000
814.058	233.394
814.187	234.298
814.315	236.721
814.443	233.510
814.571	236.587
814.699	227.788
814.827	236.740
814.955	238.087
815.083	232.250
815.212	233.212
815.340	230.067
815.468	238.212
815.596	229.952
815.724	229.808
815.852	234.269
815.980	230.644
816.108	230.577
816.237	233.962
816.365	241.865
816.493	229.740
816.621	236.875
816.749	225.538
816.877	291.183
817.005	240.510
817.133	229.356
817.262	233.750
817.390	223.625
817.518	231.942
817.646	219.721
817.774	216.865
817.902	214.577
818.030	219.923
818.158	229.808
818.287	221.817
818.415	222.721
818.543	219.962
818.671	219.192
818.799	217.750
818.927	214.750
819.055	243.856
819.183	221.712
819.312	237.846
819.440	222.048
819.568	211.654
819.696	217.269
819.824	218.538
819.952	217.923
820.080	219.067
820.208	220.673
820.337	223.000
820.465	219.327
820.593	216.798
820.721	217.587
820.849	214.471
820.977	215.731
821.105	215.250
821.233	206.298
821.362	220.606
821.490	208.538
821.618	221.308
821.746	221.644
821.874	213.308
822.002	205.635
822.130	210.221
822.258	212.788
822.387	211.163
822.515	217.183
822.643	211.471
822.771	208.779
822.899	214.115
823.027	209.010
823.155	215.433
823.283	222.375
823.412	220.087
823.540	205.587
823.668	203.481
823.796	207.288
823.924	205.971
824.052	207.596
824.180	211.510
824.308	208.019
824.437	218.442
824.565	210.606
824.693	199.779
824.821	201.990
824.949	207.221
825.077	207.962
825.205	200.837
825.333	205.375
825.462	210.788
825.590	199.096
825.718	202.327
825.846	205.087
825.974	206.990
826.102	202.250
826.230	204.058
826.358	204.990
826.487	204.327
826.615	203.827
826.743	195.702
826.871	211.269
826.999	198.298
827.127	201.971
827.255	201.221
827.383	200.260
827.512	200.846
827.640	207.183
827.768	223.913
827.896	194.692
828.024	202.644
828.152	193.760
828.280	201.183
828.408	198.971
828.537	202.510
828.665	194.913
828.793	202.298
828.921	198.500
829.049	197.827
829.177	201.558
829.305	196.058
829.433	196.442
829.562	193.413
829.690	200.433
829.818	200.750
829.946	189.442
830.074	192.673
830.202	193.942
830.330	199.548
830.458	186.712
830.587	200.529
830.715	194.635
830.843	188.615
830.971	199.865
831.099	191.596
831.227	225.346
831.355	187.510
831.483	191.433
831.612	191.288
831.740	191.240
831.868	193.490
831.996	195.654
832.124	191.615
832.252	199.606
832.380	191.894
832.508	193.500
832.637	189.163
832.765	198.125
832.893	196.913
833.021	184.952
833.149	185.135
833.277	187.115
833.405	195.808
833.533	187.288
833.662	193.654
833.790	184.865
833.918	191.952
834.046	186.615
834.174	189.240
834.302	191.519
834.430	185.519
834.558	185.058
834.687	192.894
834.815	188.163
834.943	183.019
835.071	184.538
835.199	193.067
835.327	182.971
835.455	196.846
835.583	184.144
835.712	187.269
835.840	193.077
835.968	180.519
836.096	191.337
836.224	182.933
836.352	189.712
836.480	181.846
836.608	186.500
836.737	184.740
836.865	183.260
836.993	191.606
837.121	198.058
837.249	188.673
837.377	180.548
837.505	176.365
837.633	187.288
837.762	184.115
837.890	185.827
838.018	185.279
838.146	180.596
838.274	178.731
838.402	183.317
838.530	194.731
838.658	186.096
838.787	190.971
838.915	177.673
839.043	190.808
839.171	180.500
839.299	188.596
839.427	208.798
839.555	188.048
839.683	178.288
839.812	182.933
839.940	177.587
840.068	182.962
840.196	209.683
840.324	199.385
840.452	185.760
840.580	183.663
840.708	168.740
840.837	180.644
840.965	180.519
841.093	179.760
841.221	179.923
841.349	177.577
841.477	174.904
841.605	177.442
841.733	178.635
841.862	189.298
841.990	180.327
842.118	177.740
842.246	179.904
842.374	170.067
842.502	184.490
842.630	174.558
842.758	171.298
842.887	185.962
843.015	194.154
843.143	176.837
843.271	176.471
843.399	175.433
843.527	178.837
843.655	177.096
843.783	173.019
843.912	171.337
844.040	172.827
844.168	177.202
844.296	186.519
844.424	184.817
844.552	181.481
844.680	177.692
844.808	176.779
844.937	171.548
845.065	177.423
845.193	189.231
845.321	180.923
845.449	184.750
845.577	175.212
845.705	173.519
845.833	173.442
845.962	183.846
846.090	174.250
846.218	186.375
846.346	182.183
846.474	178.846
846.602	174.817
846.730	177.760
846.858	174.558
846.987	171.510
847.115	182.740
847.243	184.038
847.371	166.317
847.499	173.558
847.627	172.375
847.755	176.846
847.883	178.067
848.012	183.538
848.140	167.981
848.268	169.673
848.396	174.462
848.524	185.596
848.652	172.125
848.780	168.529
848.908	177.721
849.037	174.481
849.165	170.212
849.293	180.971
849.421	175.423
849.549	176.500
849.677	170.115
849.805	182.250
849.933	172.490
850.062	175.808
850.190	173.644
850.318	170.404
850.446	176.010
850.574	175.163
850.702	170.788
850.830	167.365
850.958	175.077
851.087	174.010
851.215	166.385
851.343	172.779
851.471	175.231
851.599	180.346
851.727	185.346
851.855	174.837
851.983	179.308
852.112	170.163
852.240	179.942
852.368	181.010
852.496	168.462
852.624	178.260
852.752	181.692
852.880	174.596
853.008	171.442
853.137	173.212
853.265	178.173
853.393	173.663
853.521	166.096
853.649	177.577
853.777	170.779
853.905	167.240
854.033	170.817
854.162	167.750
854.290	168.173
854.418	187.356
854.546	200.654
854.674	186.981
854.802	173.500
854.930	165.173
855.058	176.452
855.187	166.635
855.315	196.404
855.443	171.048
855.571	168.510
855.699	179.625
855.827	162.615
855.955	169.058
856.083	169.490
856.212	169.962
856.340	174.779
856.468	172.740
856.596	168.587
856.724	175.817
856.852	187.135
856.980	165.740
857.108	165.462
857.237	160.990
857.365	176.019
857.493	173.962
857.621	168.058
857.749	168.154
857.877	164.279
858.005	162.904
858.133	168.096
858.262	166.490
858.390	166.904
858.518	161.788
858.646	172.971
858.774	162.808
858.902	167.010
859.030	170.587
859.158	172.577
859.287	167.788
859.415	167.375
859.543	165.231
859.671	171.490
859.799	178.288
859.927	162.942
860.055	161.587
860.183	161.115
860.312	163.192
860.440	166.471
860.568	161.837
860.696	176.904
860.824	178.923
860.952	164.394
861.080	166.894
861.208	171.625
861.337	167.875
861.465	174.538
861.593	170.192
861.721	172.375
861.849	169.635
861.977	166.260
862.105	173.404
862.233	165.038
862.362	167.663
862.490	167.913
862.618	168.500
862.746	167.067
862.874	168.019
863.002	168.635
863.130	171.510
863.258	171.923
863.387	171.365
863.515	172.683
863.643	172.692
863.771	167.337
863.899	169.423
864.027	169.712
864.155	190.817
864.283	166.769
864.412	162.221
864.540	165.038
864.668	161.654
864.796	164.183
864.924	163.904
865.052	160.596
865.180	182.365
865.308	167.635
865.437	168.750
865.565	159.298
865.693	164.250
865.821	164.567
865.949	185.769
866.077	168.490
866.205	166.144
866.333	170.000
866.462	159.038
866.590	170.490
866.718	166.981
866.846	161.808
866.974	169.356
867.102	159.788
867.230	173.212
867.358	165.865
867.487	171.692
867.615	174.875
867.743	163.096
867.871	175.606
867.999	165.740
868.127	173.942
868.255	180.827
868.383	158.154
868.512	165.788
868.640	165.058
868.768	160.010
868.896	173.288
869.024	164.558
869.152	165.529
869.280	159.317
869.408	158.635
869.537	162.760
869.665	160.298
869.793	163.500
869.921	162.837
870.049	157.433
870.177	162.385
870.305	159.760
870.433	163.587
870.562	169.481
870.690	162.702
870.818	170.269
870.946	158.981
871.074	157.135
871.202	163.288
871.330	155.067
871.458	166.212
871.587	162.692
871.715	164.212
871.843	164.846
871.971	171.385
872.099	157.644
872.227	165.596
872.355	161.760
872.483	159.712
872.612	168.135
872.740	162.750
872.868	162.385
872.996	165.817
873.124	172.663
873.252	161.865
873.380	157.990
873.508	170.183
873.637	168.750
873.765	161.144
873.893	159.846
874.021	165.827
874.149	159.990
874.277	159.327
874.405	165.856
874.533	168.510
874.662	158.471
874.790	166.817
874.918	159.471
875.046	166.827
875.174	159.087
875.302	161.221
875.430	158.106
875.558	164.721
875.687	167.952
875.815	163.375
875.943	166.269
876.071	164.577
876.199	166.260
876.327	162.385
876.455	162.413
876.583	159.019
876.712	164.317
876.840	163.942
876.968	162.644
877.096	165.375
877.224	160.750
877.352	154.808
877.480	163.212
877.608	172.519
877.737	168.731
877.865	159.731
877.993	165.942
878.121	170.779
878.249	159.365
878.377	161.615
878.505	167.625
878.633	168.683
878.762	160.837
878.890	162.625
879.018	165.683
879.146	158.750
879.274	189.029
879.402	165.740
879.530	161.212
879.658	166.894
879.787	165.558
879.915	159.981
880.043	159.048
880.171	195.212
880.299	166.731
880.427	166.000
880.555	158.808
880.683	167.885
880.812	162.692
880.940	161.798
881.068	172.510
881.196	159.567
881.324	158.029
881.452	159.231
881.580	164.702
881.708	168.779
881.837	166.163
881.965	167.000
882.093	156.423
882.221	159.298
882.349	156.913
882.477	159.894
882.605	163.308
882.733	168.923
882.862	159.769
882.990	171.298
883.118	168.288
883.246	171.058
883.374	160.375
883.502	166.029
883.630	167.981
883.758	161.490
883.887	162.692
884.015	164.067
884.143	164.990
884.271	162.663
884.399	156.433
884.527	165.913
884.655	158.529
884.783	162.837
884.912	183.615
885.040	169.856
885.168	159.317
885.296	170.538
885.424	160.356
885.552	161.808
885.680	173.644
885.808	170.058
885.937	170.375
886.065	172.029
886.193	163.250
886.321	162.971
886.449	159.423
886.577	160.788
886.705	174.038
886.833	153.048
886.962	162.673
887.090	163.913
887.218	160.125
887.346	160.712
887.474	161.163
887.602	160.125
887.730	154.019
887.858	157.077
887.987	159.663
888.115	165.913
888.243	158.731
888.371	174.202
888.499	161.000
888.627	156.971
888.755	167.385
888.883	159.952
889.012	165.394
889.140	160.538
889.268	166.865
889.396	153.731
889.524	170.038
889.652	153.279
889.780	159.173
889.908	158.760
890.037	165.875
890.165	160.413
890.293	165.385
890.421	166.115
890.549	154.500
890.677	152.510
890.805	162.423
890.933	159.000
891.062	160.288
891.190	163.740
891.318	157.404
891.446	162.106
891.574	151.490
891.702	158.452
891.830	162.529
891.958	172.875
892.087	168.038
892.215	161.096
892.343	161.644
892.471	166.067
892.599	154.644
892.727	165.894
892.855	181.981
892.983	153.731
893.112	154.962
893.240	166.942
893.368	158.356
893.496	167.077
893.624	166.423
893.752	183.346
893.880	167.663
894.008	163.135
894.137	158.808
894.265	168.000
894.393	161.250
894.521	165.885
894.649	162.712
894.777	154.173
894.905	192.769
895.033	159.875
895.162	159.144
895.290	169.250
895.418	162.808
895.546	193.058
895.674	166.558
895.802	203.288
895.930	165.346
896.058	157.346
896.187	163.500
896.315	157.740
896.443	170.404
896.571	183.135
896.699	160.481
896.827	160.471
896.955	165.337
897.083	164.596
897.212	160.731
897.340	163.087
897.468	157.500
897.596	158.596
897.724	158.779
897.852	156.010
897.980	153.702
898.108	168.885
898.237	158.154
898.365	158.885
898.493	165.567
898.621	160.683
898.749	160.192
898.877	158.327
899.005	160.615
899.133	160.731
899.262	176.856
899.390	158.413
899.518	164.962
899.646	159.413
899.774	152.538
899.902	158.115
900.030	170.163
900.158	163.529
900.287	160.087
900.415	157.192
900.543	159.817
900.671	166.365
900.799	162.212
900.927	156.067
901.055	171.279
901.183	173.202
901.312	167.654
901.440	158.260
901.568	158.894
901.696	159.375
901.824	158.202
901.952	159.538
902.080	168.202
902.208	161.942
902.337	168.635
902.465	161.452
902.593	172.115
902.721	182.702
902.849	179.337
902.977	162.029
903.105	165.760
903.233	165.298
903.362	158.471
903.490	167.538
903.618	163.375
903.746	153.558
903.874	166.096
904.002	164.317
904.130	171.029
904.258	156.308
904.387	165.423
904.515	152.625
904.643	163.240
904.771	157.606
904.899	162.529
905.027	166.875
905.155	161.154
905.283	157.510
905.412	175.952
905.540	161.990
905.668	163.385
905.796	164.673
905.924	159.577
906.052	163.077
906.180	165.817
906.308	159.971
906.437	161.058
906.565	166.250
906.693	172.615
906.821	155.269
906.949	159.837
907.077	158.038
907.205	167.788
907.333	153.875
907.462	158.317
907.590	160.702
907.718	158.462
907.846	170.663
907.974	159.625
908.102	160.654
908.230	166.712
908.358	161.837
908.487	155.183
908.615	172.010
908.743	170.923
908.871	161.115
908.999	156.904
909.127	163.712
909.255	171.798
909.383	160.519
909.512	157.260
909.640	175.173
909.768	162.317
909.896	167.240
910.024	169.837
910.152	170.154
910.280	167.067
910.408	160.327
910.537	158.394
910.665	166.644
910.793	167.327
910.921	170.346
911.049	168.673
911.177	173.885
911.305	163.096
911.433	186.433
911.562	169.606
911.690	165.423
911.818	164.250
911.946	164.990
912.074	171.663
912.202	160.385
912.330	180.404
912.458	160.740
912.587	169.875
912.715	168.048
912.843	178.538
912.971	170.058
913.099	184.481
913.227	174.875
913.355	169.673
913.483	181.673
913.612	173.192
913.740	196.048
913.868	169.596
