70_80_wo_Pol_at_750.00nm_cut_at_1179.00Y_01.dat
03.07.2023
10:56:31
cut middle at Y: 1179.00
top cursor: 1231 down cursor: 1127 mean of: 104 lines , 2560 datapoints
wavelength(nm)	intensity[arb. units]
585.996	24726.413
586.124	24373.269
586.252	24336.827
586.380	24391.163
586.508	24491.106
586.637	24604.337
586.765	24601.798
586.893	24683.683
587.021	24669.423
587.149	24709.788
587.277	24805.212
587.405	24829.423
587.533	24913.423
587.662	24865.231
587.790	24898.606
587.918	24867.375
588.046	24868.173
588.174	24951.356
588.302	24929.231
588.430	24951.048
588.558	24953.385
588.687	25031.558
588.815	25003.308
588.943	24992.183
589.071	24984.202
589.199	24994.529
589.327	24997.375
589.455	24991.798
589.583	25013.394
589.712	25022.212
589.840	24934.019
589.968	24964.115
590.096	24957.317
590.224	25012.231
590.352	25097.577
590.480	25035.760
590.608	24963.519
590.737	25024.538
590.865	25036.067
590.993	24942.077
591.121	24983.923
591.249	24983.740
591.377	25038.510
591.505	25093.808
591.633	24993.654
591.762	25040.500
591.890	25034.308
592.018	25102.010
592.146	25082.606
592.274	25009.163
592.402	25038.538
592.530	25284.942
592.658	25209.885
592.787	25221.587
592.915	25268.385
593.043	25214.183
593.171	25289.067
593.299	25293.894
593.427	25240.260
593.555	25302.019
593.683	25357.212
593.812	25362.808
593.940	25449.519
594.068	25426.404
594.196	25434.337
594.324	25480.327
594.452	25695.587
594.580	25618.519
594.708	25674.990
594.837	25718.163
594.965	25800.250
595.093	25829.087
595.221	26015.510
595.349	25911.788
595.477	25973.115
595.605	26061.779
595.733	26049.048
595.862	26061.442
595.990	26059.923
596.118	26158.144
596.246	26228.904
596.374	26223.212
596.502	26294.779
596.630	26254.250
596.758	26250.942
596.887	26362.856
597.015	26381.933
597.143	26358.577
597.271	26370.298
597.399	26441.173
597.527	26425.990
597.655	26418.933
597.783	26495.615
597.912	26460.654
598.040	26507.404
598.168	26515.865
598.296	26422.923
598.424	26595.635
598.552	26403.462
598.680	26411.490
598.808	26569.327
598.937	26468.856
599.065	26448.144
599.193	26468.750
599.321	26551.442
599.449	26475.135
599.577	26366.971
599.705	26389.144
599.833	26374.202
599.962	26347.558
600.090	26371.500
600.218	26305.817
600.346	26290.135
600.474	26274.269
600.602	26306.519
600.730	26337.452
600.858	26353.558
600.987	26417.096
601.115	26317.779
601.243	26380.154
601.371	26431.019
601.499	26382.250
601.627	26439.288
601.755	26406.865
601.883	26479.462
602.012	26369.712
602.140	26485.462
602.268	26451.298
602.396	26602.519
602.524	26602.019
602.652	26708.548
602.780	26639.558
602.908	26759.452
603.037	26823.462
603.165	26844.404
603.293	26885.260
603.421	26933.529
603.549	26991.923
603.677	27028.808
603.805	27062.558
603.933	27150.231
604.062	27273.327
604.190	27429.481
604.318	27414.779
604.446	27432.606
604.574	27595.115
604.702	27536.413
604.830	27601.856
604.958	27663.481
605.087	27737.231
605.215	27897.019
605.343	27958.837
605.471	28045.173
605.599	28021.337
605.727	28202.317
605.855	28240.260
605.983	28295.212
606.112	28322.635
606.240	28350.712
606.368	28379.587
606.496	28381.442
606.624	28486.654
606.752	28499.212
606.880	28553.029
607.008	28577.962
607.137	28572.952
607.265	28691.212
607.393	28748.317
607.521	28785.760
607.649	28746.202
607.777	28709.308
607.905	28730.135
608.033	28742.346
608.162	28705.692
608.290	28729.394
608.418	28765.558
608.546	28825.269
608.674	28819.885
608.802	28763.462
608.930	28799.606
609.058	28721.990
609.187	28733.837
609.315	28733.385
609.443	28724.808
609.571	28839.769
609.699	28646.106
609.827	28743.635
609.955	28685.404
610.083	28649.125
610.212	28629.981
610.340	28553.087
610.468	28593.212
610.596	28576.788
610.724	28573.913
610.852	28605.433
610.980	28604.721
611.108	28533.346
611.237	28613.067
611.365	28584.317
611.493	28539.183
611.621	28550.221
611.749	28537.663
611.877	28641.942
612.005	28587.096
612.133	28653.048
612.262	28621.038
612.390	28701.837
612.518	28764.317
612.646	28712.913
612.774	28882.327
612.902	28806.577
613.030	28829.971
613.158	28790.663
613.287	28863.010
613.415	28802.337
613.543	28818.221
613.671	28917.654
613.799	28906.413
613.927	28904.096
614.055	29043.798
614.183	28989.202
614.312	29041.740
614.440	29159.952
614.568	29200.510
614.696	29228.135
614.824	29218.779
614.952	29322.577
615.080	29328.125
615.208	29447.317
615.337	29484.365
615.465	29460.452
615.593	29607.933
615.721	29508.875
615.849	29669.192
615.977	29650.308
616.105	29692.346
616.233	29778.154
616.362	29937.721
616.490	29891.904
616.618	29934.038
616.746	30069.317
616.874	30035.019
617.002	30089.712
617.130	30082.077
617.258	30129.654
617.387	30145.452
617.515	30179.106
617.643	30120.683
617.771	30217.942
617.899	30198.423
618.027	30303.510
618.155	30319.240
618.283	30306.058
618.412	30366.692
618.540	30387.317
618.668	30395.538
618.796	30408.298
618.924	30411.712
619.052	30368.404
619.180	30317.875
619.308	30311.288
619.437	30316.990
619.565	30365.279
619.693	30350.673
619.821	30345.933
619.949	30328.644
620.077	30352.548
620.205	30326.048
620.333	30349.721
620.462	30298.663
620.590	30388.385
620.718	30386.173
620.846	30344.856
620.974	30339.712
621.102	30417.317
621.230	30354.346
621.358	30471.442
621.487	30322.346
621.615	30305.750
621.743	30191.471
621.871	30248.058
621.999	30237.250
622.127	30234.346
622.255	30200.712
622.383	30219.567
622.512	30133.769
622.640	30144.548
622.768	30164.904
622.896	30166.827
623.024	30143.212
623.152	30115.933
623.280	30203.212
623.408	30220.692
623.537	30172.827
623.665	30068.731
623.793	30165.250
623.921	30139.817
624.049	30121.000
624.177	30113.096
624.305	30133.817
624.433	30055.683
624.562	30028.673
624.690	30128.010
624.818	29967.029
624.946	29965.490
625.074	29936.904
625.202	29947.125
625.330	29957.596
625.458	30107.221
625.587	29923.365
625.715	29986.731
625.843	29889.846
625.971	30020.731
626.099	29932.692
626.227	29923.856
626.355	29893.587
626.483	29968.317
626.612	29949.317
626.740	30068.356
626.868	29983.529
626.996	30021.692
627.124	30008.163
627.252	29909.596
627.380	30036.125
627.508	29964.135
627.637	29948.606
627.765	30070.894
627.893	30064.048
628.021	30091.721
628.149	29980.125
628.277	30038.317
628.405	29956.856
628.533	29968.808
628.662	30012.731
628.790	30124.692
628.918	30020.779
629.046	30193.317
629.174	30051.952
629.302	30115.952
629.430	30099.817
629.558	30114.288
629.687	30093.827
629.815	30131.644
629.943	30278.000
630.071	30227.288
630.199	30206.644
630.327	30279.702
630.455	30282.510
630.583	30337.327
630.712	30340.058
630.840	30329.933
630.968	30320.327
631.096	30384.654
631.224	30395.500
631.352	30470.721
631.480	30402.442
631.608	30576.288
631.737	30448.385
631.865	30509.798
631.993	30477.221
632.121	30647.865
632.249	30575.202
632.377	30514.923
632.505	30584.385
632.633	30632.990
632.762	30510.135
632.890	30547.413
633.018	30542.433
633.146	30525.625
633.274	30488.615
633.402	30512.163
633.530	30482.923
633.658	30463.308
633.787	30471.135
633.915	30448.990
634.043	30441.096
634.171	30480.750
634.299	30454.856
634.427	30432.096
634.555	30599.471
634.683	30384.471
634.812	30359.288
634.940	30304.106
635.068	30300.923
635.196	30270.471
635.324	30284.904
635.452	30221.010
635.580	30269.519
635.708	30160.385
635.837	30166.010
635.965	30053.606
636.093	30068.279
636.221	29924.923
636.349	29898.856
636.477	29832.731
636.605	29801.346
636.733	29755.933
636.862	29767.462
636.990	29689.385
637.118	29684.346
637.246	29585.202
637.374	29678.048
637.502	29480.000
637.630	29451.135
637.758	29397.058
637.887	29271.183
638.015	29409.471
638.143	29227.625
638.271	29120.971
638.399	29127.519
638.527	29101.904
638.655	29087.067
638.783	29008.760
638.912	28999.250
639.040	28845.962
639.168	28786.375
639.296	28732.067
639.424	28799.808
639.552	28713.875
639.680	28713.587
639.808	28626.817
639.937	28537.135
640.065	28508.779
640.193	28544.731
640.321	28631.481
640.449	28580.058
640.577	28492.683
640.705	28456.510
640.833	28395.250
640.962	28484.067
641.090	28368.144
641.218	28313.375
641.346	28394.731
641.474	28317.471
641.602	28303.913
641.730	28289.019
641.858	28242.231
641.987	28258.404
642.115	28393.221
642.243	28262.288
642.371	28422.106
642.499	28127.904
642.627	28231.712
642.755	28141.558
642.883	28159.000
643.012	28125.067
643.140	28157.808
643.268	28137.875
643.396	28095.462
643.524	28102.827
643.652	28147.183
643.780	28007.452
643.908	28018.529
644.037	28189.240
644.165	28104.606
644.293	28157.933
644.421	27990.615
644.549	28075.375
644.677	28023.827
644.805	27948.125
644.933	27884.250
645.062	28003.202
645.190	28033.981
645.318	27959.548
645.446	27889.394
645.574	27912.712
645.702	27842.731
645.830	27826.808
645.958	27751.510
646.087	27756.202
646.215	27694.760
646.343	27702.163
646.471	27857.635
646.599	27653.779
646.727	27642.510
646.855	27636.875
646.983	27620.500
647.112	27629.721
647.240	27583.394
647.368	27581.250
647.496	27541.269
647.624	27446.673
647.752	27431.096
647.880	27399.712
648.008	27353.490
648.137	27377.038
648.265	27276.981
648.393	27404.394
648.521	27208.894
648.649	27325.317
648.777	27189.529
648.905	27117.173
649.033	27150.769
649.162	27009.788
649.290	26904.548
649.418	26921.356
649.546	27041.183
649.674	26841.163
649.802	26785.000
649.930	26707.654
650.058	26645.894
650.187	26704.019
650.315	26572.981
650.443	26588.577
650.571	26448.798
650.699	26408.279
650.827	26358.500
650.955	26264.606
651.083	26328.337
651.212	26150.413
651.340	26139.365
651.468	26069.635
651.596	26032.423
651.724	26008.990
651.852	25939.750
651.980	25891.913
652.108	25845.894
652.237	25851.077
652.365	25695.038
652.493	25678.904
652.621	25615.038
652.749	25583.615
652.877	25521.202
653.005	25554.288
653.133	25480.750
653.262	25362.904
653.390	25300.702
653.518	25442.817
653.646	25183.817
653.774	25175.240
653.902	25204.721
654.030	25141.712
654.158	25014.346
654.287	25025.596
654.415	24936.327
654.543	24991.087
654.671	24878.269
654.799	24859.548
654.927	24725.288
655.055	24672.154
655.183	24679.683
655.312	24671.529
655.440	24588.048
655.568	24493.279
655.696	24497.442
655.824	24423.163
655.952	24429.712
656.080	24297.577
656.208	24275.971
656.337	24269.798
656.465	24349.337
656.593	24203.798
656.721	24186.904
656.849	24180.125
656.977	23959.481
657.105	23971.125
657.233	23915.538
657.362	23933.250
657.490	23929.606
657.618	23856.981
657.746	23844.404
657.874	23556.567
658.002	23518.510
658.130	23429.529
658.258	23385.692
658.387	23297.125
658.515	23272.442
658.643	23229.971
658.771	23236.846
658.899	23134.202
659.027	23126.481
659.155	23070.683
659.283	23004.654
659.412	22972.567
659.540	22940.856
659.668	22883.510
659.796	22988.077
659.924	22917.087
660.052	23028.365
660.180	22949.192
660.308	22970.019
660.437	22920.462
660.565	22842.673
660.693	22710.154
660.821	22729.385
660.949	22452.663
661.077	22554.231
661.205	22723.481
661.333	22530.298
661.462	22498.952
661.590	22467.115
661.718	22325.038
661.846	22387.452
661.974	22308.048
662.102	22266.740
662.230	22192.587
662.358	22048.240
662.487	22093.712
662.615	22084.923
662.743	22013.779
662.871	22005.163
662.999	21947.423
663.127	21816.356
663.255	21849.606
663.383	21927.952
663.512	21713.327
663.640	21744.923
663.768	21720.212
663.896	21632.356
664.024	21593.837
664.152	21617.462
664.280	21622.740
664.408	21475.875
664.537	21459.981
664.665	21406.183
664.793	21428.558
664.921	21338.154
665.049	21381.615
665.177	21262.933
665.305	21294.029
665.433	21255.135
665.562	21287.760
665.690	21190.394
665.818	21263.827
665.946	21032.644
666.074	21040.058
666.202	20975.606
666.330	20957.663
666.458	21221.894
666.587	20889.385
666.715	20823.942
666.843	20824.673
666.971	20792.510
667.099	20684.885
667.227	20743.202
667.355	20708.077
667.483	20644.635
667.612	20715.308
667.740	20613.702
667.868	20510.500
667.996	20521.519
668.124	20505.962
668.252	20566.673
668.380	20408.077
668.508	20405.125
668.637	20283.885
668.765	20252.135
668.893	20247.644
669.021	20148.654
669.149	20174.038
669.277	20016.885
669.405	20184.471
669.533	20139.173
669.662	19986.856
669.790	19981.529
669.918	19912.308
670.046	20022.481
670.174	19822.250
670.302	19774.865
670.430	19695.394
670.558	19722.269
670.687	19798.077
670.815	19582.635
670.943	19612.365
671.071	19469.875
671.199	19460.442
671.327	19371.231
671.455	19418.346
671.583	19313.298
671.712	19318.125
671.840	19298.510
671.968	19364.538
672.096	19325.654
672.224	19083.250
672.352	19033.587
672.480	18929.808
672.608	18941.808
672.737	18874.423
672.865	18817.837
672.993	18762.029
673.121	18705.010
673.249	18665.510
673.377	18572.260
673.505	18532.971
673.633	18588.471
673.762	18441.000
673.890	18469.375
674.018	18449.038
674.146	18319.798
674.274	18314.144
674.402	18302.942
674.530	18206.250
674.658	18102.394
674.787	18026.971
674.915	18177.788
675.043	17968.471
675.171	17917.500
675.299	17858.625
675.427	17828.567
675.555	17770.154
675.683	17770.115
675.812	17651.010
675.940	17605.856
676.068	17531.010
676.196	17536.827
676.324	17444.058
676.452	17345.077
676.580	17341.971
676.708	17305.587
676.837	17227.808
676.965	17268.962
677.093	17266.606
677.221	17124.029
677.349	17050.817
677.477	17035.183
677.605	16896.144
677.733	16907.000
677.862	16860.923
677.990	16818.115
678.118	16798.000
678.246	16732.635
678.374	16749.077
678.502	16578.817
678.630	16539.596
678.758	16528.471
678.887	16614.683
679.015	16366.048
679.143	16313.260
679.271	16282.442
679.399	16272.106
679.527	16236.683
679.655	16229.442
679.783	16111.260
679.912	16068.952
680.040	16165.875
680.168	15949.510
680.296	15969.788
680.424	15944.942
680.552	15858.683
680.680	15805.500
680.808	15747.962
680.937	15698.048
681.065	15732.769
681.193	15620.125
681.321	15540.212
681.449	15613.606
681.577	15524.404
681.705	15482.962
681.833	15452.452
681.962	15401.644
682.090	15323.240
682.218	15327.038
682.346	15301.702
682.474	15201.846
682.602	15176.096
682.730	15222.442
682.858	15085.846
682.987	15072.404
683.115	15059.413
683.243	15019.433
683.371	15021.327
683.499	14911.106
683.627	14945.519
683.755	14898.548
683.883	14841.481
684.012	14810.952
684.140	14779.644
684.268	14756.308
684.396	14782.827
684.524	14704.538
684.652	14716.452
684.780	14665.356
684.908	14631.663
685.037	14605.385
685.165	14541.558
685.293	14564.154
685.421	14542.529
685.549	14475.462
685.677	14429.442
685.805	14445.423
685.933	14372.298
686.062	14344.423
686.190	14293.933
686.318	14260.346
686.446	14202.856
686.574	14182.683
686.702	14197.519
686.830	14120.942
686.958	14180.000
687.087	14041.288
687.215	14020.087
687.343	13967.413
687.471	14115.942
687.599	13852.990
687.727	13847.106
687.855	13802.587
687.983	13747.827
688.112	13837.558
688.240	13746.125
688.368	13726.356
688.496	13689.712
688.624	13553.442
688.752	13709.337
688.880	13564.452
689.008	13513.933
689.137	13484.962
689.265	13453.558
689.393	13401.885
689.521	13377.808
689.649	13450.452
689.777	13343.846
689.905	13410.298
690.033	13227.375
690.162	13199.029
690.290	13212.192
690.418	13135.875
690.546	13169.385
690.674	13121.077
690.802	13106.529
690.930	13039.760
691.058	13029.385
691.187	12937.673
691.315	12901.221
691.443	12907.990
691.571	12859.115
691.699	12771.260
691.827	12742.788
691.955	12700.692
692.083	12644.769
692.212	12664.673
692.340	12632.154
692.468	12628.010
692.596	12574.779
692.724	12477.933
692.852	12560.490
692.980	12521.837
693.108	12491.029
693.237	12375.769
693.365	12339.067
693.493	12326.683
693.621	12310.394
693.749	12210.029
693.877	12225.510
694.005	12094.058
694.133	12085.885
694.262	12115.510
694.390	11972.510
694.518	11975.519
694.646	11961.288
694.774	11874.731
694.902	11859.702
695.030	11836.202
695.158	11769.231
695.287	11720.500
695.415	11721.481
695.543	11667.365
695.671	11585.673
695.799	11669.163
695.927	11555.567
696.055	11536.827
696.183	11439.885
696.312	11572.885
696.440	11446.519
696.568	11424.913
696.696	11270.817
696.824	11211.058
696.952	11174.933
697.080	11170.087
697.208	11095.740
697.337	11077.760
697.465	11012.558
697.593	10971.817
697.721	11056.875
697.849	10882.077
697.977	10909.788
698.105	10929.404
698.233	10817.212
698.362	10751.308
698.490	10862.615
698.618	10665.644
698.746	10633.856
698.874	10683.163
699.002	10616.635
699.130	10594.529
699.258	10518.529
699.387	10446.875
699.515	10453.692
699.643	10424.394
699.771	10456.298
699.899	10325.423
700.027	10248.279
700.155	10278.433
700.283	10161.663
700.412	10162.538
700.540	10180.115
700.668	10191.192
700.796	10054.154
700.924	10041.817
701.052	10030.413
701.180	10024.644
701.308	9885.163
701.437	9888.135
701.565	9843.788
701.693	9864.990
701.821	9978.308
701.949	9752.558
702.077	9744.644
702.205	9767.192
702.333	9659.644
702.462	9620.827
702.590	9632.019
702.718	9529.913
702.846	9707.154
702.974	9477.750
703.102	9451.740
703.230	9448.288
703.358	9334.067
703.487	9324.625
703.615	9304.808
703.743	9260.952
703.871	9241.538
703.999	9183.327
704.127	9126.490
704.255	9099.817
704.383	9126.769
704.512	9158.644
704.640	9059.058
704.768	9134.462
704.896	8967.327
705.024	8877.913
705.152	8907.423
705.280	8920.010
705.408	8803.731
705.537	8719.712
705.665	8765.471
705.793	8708.894
705.921	8662.269
706.049	8588.538
706.177	8609.183
706.305	8541.433
706.433	8571.750
706.562	8508.712
706.690	8481.404
706.818	8481.308
706.946	8371.067
707.074	8306.990
707.202	8292.769
707.330	8250.885
707.458	8245.423
707.587	8209.433
707.715	8214.019
707.843	8208.385
707.971	8163.702
708.099	8033.490
708.227	7995.904
708.355	8008.125
708.483	7979.875
708.612	7951.279
708.740	7860.596
708.868	7842.144
708.996	7914.625
709.124	7858.462
709.252	7804.433
709.380	7802.750
709.508	7725.048
709.637	7753.048
709.765	7711.529
709.893	7696.269
710.021	7613.760
710.149	7706.913
710.277	7552.817
710.405	7537.510
710.533	7552.308
710.662	7480.442
710.790	7584.183
710.918	7430.471
711.046	7459.558
711.174	7369.750
711.302	7394.558
711.430	7339.452
711.558	7343.192
711.687	7268.808
711.815	7220.212
711.943	7193.385
712.071	7188.375
712.199	7197.760
712.327	7231.442
712.455	7090.933
712.583	7278.702
712.712	7101.260
712.840	7134.115
712.968	7034.625
713.096	6995.865
713.224	6976.981
713.352	6941.067
713.480	6882.644
713.608	6882.192
713.737	6830.385
713.865	6889.923
713.993	6814.288
714.121	6825.760
714.249	6728.154
714.377	6719.375
714.505	6684.519
714.633	6689.346
714.762	6640.962
714.890	6638.644
715.018	6610.615
715.146	6618.433
715.274	6554.577
715.402	6536.337
715.530	6480.452
715.658	6538.279
715.787	6484.240
715.915	6581.260
716.043	6420.942
716.171	6561.279
716.299	6349.490
716.427	6425.317
716.555	6331.923
716.683	6295.240
716.812	6288.048
716.940	6266.606
717.068	6211.471
717.196	6389.692
717.324	6232.548
717.452	6197.298
717.580	6208.779
717.708	6116.163
717.837	6098.125
717.965	6121.442
718.093	6076.135
718.221	6072.481
718.349	6125.298
718.477	6002.808
718.605	6094.327
718.733	6000.173
718.862	6002.096
718.990	5927.221
719.118	5955.029
719.246	5877.538
719.374	5843.692
719.502	5872.548
719.630	5972.769
719.758	5775.837
719.887	5771.913
720.015	5778.529
720.143	5795.260
720.271	5668.029
720.399	5740.615
720.527	5667.962
720.655	5740.548
720.783	5611.240
720.912	5560.856
721.040	5573.365
721.168	5588.875
721.296	5511.365
721.424	5490.981
721.552	5450.327
721.680	5527.413
721.808	5490.827
721.937	5417.615
722.065	5465.077
722.193	5408.673
722.321	5372.933
722.449	5356.519
722.577	5304.288
722.705	5279.125
722.833	5300.971
722.962	5276.510
723.090	5248.673
723.218	5241.510
723.346	5242.490
723.474	5150.240
723.602	5119.144
723.730	5114.433
723.858	5091.125
723.987	5104.394
724.115	5062.702
724.243	5077.365
724.371	5025.048
724.499	5015.144
724.627	4993.279
724.755	4962.481
724.883	5017.096
725.012	5108.394
725.140	4921.471
725.268	4840.712
725.396	4954.894
725.524	4974.038
725.652	4828.779
725.780	4922.250
725.908	4755.721
726.037	4740.087
726.165	4759.808
726.293	4691.510
726.421	4702.096
726.549	4704.087
726.677	4673.779
726.805	4593.183
726.933	4623.740
727.062	4593.981
727.190	4568.058
727.318	4528.837
727.446	4511.288
727.574	4459.663
727.702	4460.394
727.830	4494.462
727.958	4449.683
728.087	4522.663
728.215	4554.212
728.343	4415.808
728.471	4407.596
728.599	4488.365
728.727	4344.423
728.855	4343.673
728.983	4291.048
729.112	4288.827
729.240	4278.183
729.368	4233.827
729.496	4275.163
729.624	4240.846
729.752	4197.337
729.880	4202.077
730.008	4168.538
730.137	4181.087
730.265	4114.654
730.393	4264.115
730.521	4212.644
730.649	3996.067
730.777	3964.308
730.905	3981.135
731.033	3943.721
731.162	4055.202
731.290	4028.952
731.418	3931.462
731.546	3907.615
731.674	3899.827
731.802	3851.740
731.930	3955.433
732.058	3963.375
732.187	3857.442
732.315	3843.240
732.443	3935.010
732.571	3857.587
732.699	3843.567
732.827	3868.212
732.955	3782.010
733.083	3770.327
733.212	3780.981
733.340	3709.962
733.468	3713.683
733.596	3702.010
733.724	3673.769
733.852	3694.125
733.980	3664.298
734.108	3803.712
734.237	3631.365
734.365	3620.481
734.493	3621.712
734.621	3559.115
734.749	3560.096
734.877	3579.538
735.005	3552.317
735.133	3524.385
735.262	3626.077
735.390	3503.567
735.518	3484.692
735.646	3532.837
735.774	3520.750
735.902	3521.308
736.030	3441.904
736.158	3419.798
736.287	3446.721
736.415	3396.683
736.543	3397.702
736.671	3346.077
736.799	3392.250
736.927	3336.788
737.055	3446.654
737.183	3306.173
737.312	3317.529
737.440	3314.615
737.568	3401.981
737.696	3338.731
737.824	3259.260
737.952	3505.692
738.080	3215.644
738.208	3281.779
738.337	3231.221
738.465	3239.577
738.593	3207.077
738.721	3185.404
738.849	3230.260
738.977	3164.712
739.105	3143.433
739.233	3133.058
739.362	3113.981
739.490	3089.596
739.618	3143.433
739.746	3137.308
739.874	3077.788
740.002	3081.260
740.130	3058.808
740.258	3002.125
740.387	3088.067
740.515	3026.750
740.643	3045.567
740.771	3105.212
740.899	2972.385
741.027	2947.212
741.155	2927.058
741.283	2920.837
741.412	3040.019
741.540	2952.192
741.668	2930.154
741.796	2997.067
741.924	2861.942
742.052	3060.721
742.180	2860.346
742.308	2814.769
742.437	2860.308
742.565	2825.577
742.693	2960.990
742.821	2783.462
742.949	2769.692
743.077	2824.721
743.205	2731.606
743.333	2775.538
743.462	2767.558
743.590	2726.260
743.718	2768.952
743.846	2715.885
743.974	2760.558
744.102	2691.856
744.230	2715.442
744.358	2690.337
744.487	2677.202
744.615	2659.606
744.743	2646.712
744.871	2660.433
744.999	2693.971
745.127	2631.769
745.255	2617.106
745.383	2661.260
745.512	2597.769
745.640	2588.548
745.768	2586.375
745.896	2645.135
746.024	2602.885
746.152	2553.346
746.280	2614.269
746.408	2572.865
746.537	2579.683
746.665	2555.115
746.793	2535.115
746.921	2529.221
747.049	2521.240
747.177	2504.750
747.305	2591.654
747.433	2491.827
747.562	2485.356
747.690	2525.327
747.818	2486.635
747.946	2480.798
748.074	2474.183
748.202	2478.769
748.330	2461.212
748.458	2458.856
748.587	2448.558
748.715	2460.596
748.843	2413.981
748.971	2401.442
749.099	2431.500
749.227	2419.683
749.355	2413.462
749.483	2368.010
749.612	2399.798
749.740	2385.163
749.868	2363.192
749.996	2358.615
750.124	2372.087
750.252	2331.231
750.380	2340.481
750.508	2326.827
750.637	2308.481
750.765	2301.885
750.893	2290.990
751.021	2294.144
751.149	2289.971
751.277	2269.760
751.405	2242.308
751.533	2267.846
751.662	2217.356
751.790	2233.202
751.918	2225.904
752.046	2217.346
752.174	2181.317
752.302	2165.231
752.430	2162.587
752.558	2170.096
752.687	2164.385
752.815	2149.096
752.943	2139.885
753.071	2129.317
753.199	2135.269
753.327	2134.240
753.455	2103.942
753.583	2085.192
753.712	2070.577
753.840	2097.663
753.968	2073.673
754.096	2078.760
754.224	2063.115
754.352	2032.125
754.480	2055.625
754.608	2036.558
754.737	2025.644
754.865	2033.769
754.993	2021.058
755.121	2009.683
755.249	1976.606
755.377	1964.558
755.505	1975.971
755.633	1960.000
755.762	1959.827
755.890	1954.673
756.018	1934.529
756.146	1925.115
756.274	1913.942
756.402	1919.202
756.530	1910.433
756.658	1907.163
756.787	1872.750
756.915	1879.538
757.043	1860.058
757.171	1865.337
757.299	1885.337
757.427	1837.481
757.555	1832.317
757.683	1845.221
757.812	1824.981
757.940	1810.692
758.068	1808.019
758.196	1803.538
758.324	1793.683
758.452	1786.885
758.580	1769.038
758.708	1783.442
758.837	1778.462
758.965	1787.913
759.093	1757.163
759.221	1735.385
759.349	1720.144
759.477	1716.423
759.605	1695.144
759.733	1716.654
759.862	1699.029
759.990	1706.404
760.118	1695.606
760.246	1679.798
760.374	1688.115
760.502	1673.385
760.630	1646.385
760.758	1652.260
760.887	1653.971
761.015	1637.769
761.143	1647.990
761.271	1630.135
761.399	1619.856
761.527	1623.442
761.655	1625.260
761.783	1580.875
761.912	1589.365
762.040	1594.760
762.168	1563.000
762.296	1560.952
762.424	1567.183
762.552	1569.394
762.680	1531.567
762.808	1558.596
762.937	1548.154
763.065	1519.375
763.193	1510.163
763.321	1502.279
763.449	1490.529
763.577	1485.048
763.705	1504.962
763.833	1495.519
763.962	1476.769
764.090	1471.433
764.218	1472.913
764.346	1461.663
764.474	1472.221
764.602	1452.942
764.730	1442.635
764.858	1439.962
764.987	1444.154
765.115	1416.077
765.243	1406.212
765.371	1406.837
765.499	1405.413
765.627	1404.144
765.755	1393.087
765.883	1392.875
766.012	1375.827
766.140	1372.221
766.268	1360.327
766.396	1358.077
766.524	1363.308
766.652	1344.019
766.780	1342.442
766.908	1343.452
767.037	1345.375
767.165	1324.394
767.293	1341.288
767.421	1327.712
767.549	1299.865
767.677	1328.875
767.805	1298.356
767.933	1302.663
768.062	1292.990
768.190	1285.298
768.318	1276.221
768.446	1266.721
768.574	1271.740
768.702	1268.990
768.830	1261.683
768.958	1249.298
769.087	1262.413
769.215	1241.346
769.343	1237.913
769.471	1246.856
769.599	1234.731
769.727	1225.240
769.855	1213.779
769.983	1239.288
770.112	1215.673
770.240	1198.962
770.368	1195.375
770.496	1188.558
770.624	1203.163
770.752	1179.846
770.880	1193.375
771.008	1165.202
771.137	1169.971
771.265	1157.375
771.393	1144.240
771.521	1157.163
771.649	1161.942
771.777	1176.115
771.905	1189.375
772.033	1172.163
772.162	1128.413
772.290	1131.308
772.418	1136.788
772.546	1121.981
772.674	1114.856
772.802	1102.731
772.930	1104.990
773.058	1111.067
773.187	1103.712
773.315	1096.731
773.443	1085.442
773.571	1096.635
773.699	1090.548
773.827	1083.058
773.955	1097.981
774.083	1080.433
774.212	1064.029
774.340	1062.212
774.468	1062.702
774.596	1055.760
774.724	1066.365
774.852	1057.346
774.980	1038.058
775.108	1035.587
775.237	1029.558
775.365	1022.115
775.493	1045.212
775.621	1020.183
775.749	1037.096
775.877	1028.817
776.005	1025.221
776.133	1021.577
776.262	995.413
776.390	1008.423
776.518	989.404
776.646	1005.663
776.774	990.183
776.902	974.798
777.030	971.058
777.158	976.356
777.287	984.135
777.415	956.683
777.543	972.327
777.671	977.000
777.799	963.279
777.927	962.702
778.055	966.144
778.183	949.115
778.312	950.106
778.440	951.837
778.568	961.125
778.696	950.048
778.824	947.952
778.952	951.365
779.080	937.298
779.208	930.096
779.337	930.788
779.465	938.606
779.593	922.913
779.721	929.942
779.849	912.827
779.977	918.240
780.105	913.885
780.233	907.192
780.362	901.096
780.490	897.577
780.618	899.067
780.746	898.490
780.874	896.308
781.002	895.087
781.130	885.635
781.258	874.240
781.387	879.163
781.515	883.000
781.643	864.885
781.771	872.644
781.899	880.250
782.027	864.260
782.155	858.413
782.283	856.173
782.412	856.154
782.540	861.202
782.668	840.798
782.796	843.452
782.924	856.712
783.052	848.260
783.180	836.250
783.308	835.288
783.437	836.462
783.565	835.490
783.693	830.250
783.821	834.625
783.949	818.250
784.077	824.288
784.205	828.385
784.333	814.221
784.462	819.615
784.590	807.404
784.718	797.212
784.846	805.529
784.974	813.173
785.102	795.817
785.230	794.779
785.358	789.269
785.487	791.375
785.615	786.635
785.743	781.577
785.871	794.625
785.999	786.279
786.127	793.298
786.255	772.433
786.383	766.327
786.512	777.183
786.640	763.644
786.768	758.067
786.896	759.471
787.024	749.346
787.152	753.548
787.280	764.500
787.408	749.481
787.537	761.817
787.665	755.337
787.793	739.942
787.921	737.135
788.049	735.231
788.177	734.567
788.305	731.942
788.433	736.029
788.562	727.788
788.690	724.952
788.818	724.413
788.946	720.567
789.074	709.856
789.202	709.529
789.330	712.183
789.458	717.279
789.587	706.423
789.715	711.163
789.843	712.375
789.971	704.721
790.099	684.115
790.227	693.606
790.355	691.490
790.483	689.279
790.612	688.154
790.740	697.462
790.868	682.952
790.996	699.183
791.124	700.692
791.252	686.683
791.380	672.788
791.508	679.817
791.637	680.904
791.765	667.298
791.893	672.327
792.021	671.750
792.149	663.558
792.277	672.990
792.405	653.673
792.533	662.490
792.662	656.000
792.790	654.385
792.918	663.212
793.046	649.808
793.174	651.000
793.302	644.058
793.430	638.221
793.558	651.173
793.687	645.317
793.815	635.702
793.943	648.125
794.071	633.587
794.199	627.740
794.327	636.010
794.455	639.135
794.583	628.942
794.712	624.577
794.840	621.587
794.968	626.231
795.096	628.587
795.224	608.404
795.352	646.106
795.480	606.106
795.608	599.038
795.737	603.279
795.865	605.923
795.993	604.442
796.121	596.702
796.249	597.173
796.377	595.010
796.505	595.212
796.633	587.519
796.762	588.923
796.890	584.202
797.018	589.769
797.146	592.327
797.274	584.183
797.402	575.356
797.530	570.250
797.658	573.490
797.787	590.683
797.915	575.192
798.043	572.692
798.171	571.904
798.299	557.769
798.427	566.317
798.555	572.471
798.683	562.490
798.812	584.433
798.940	601.490
799.068	586.067
799.196	564.837
799.324	554.962
799.452	541.577
799.580	543.904
799.708	553.769
799.837	543.567
799.965	538.250
800.093	541.212
800.221	533.808
800.349	533.644
800.477	522.808
800.605	531.327
800.733	536.519
800.862	532.010
800.990	522.913
801.118	525.010
801.246	525.019
801.374	525.798
801.502	519.952
801.630	519.981
801.758	519.827
801.887	510.673
802.015	514.500
802.143	506.894
802.271	505.490
802.399	495.087
802.527	491.413
802.655	493.394
802.783	504.654
802.912	495.558
803.040	496.231
803.168	490.731
803.296	501.990
803.424	493.240
803.552	499.260
803.680	485.317
803.808	485.971
803.937	489.904
804.065	487.731
804.193	488.125
804.321	503.894
804.449	504.221
804.577	479.327
804.705	497.923
804.833	478.971
804.962	470.567
805.090	472.702
805.218	471.000
805.346	467.981
805.474	478.529
805.602	477.317
805.730	479.635
805.858	454.740
805.987	462.913
806.115	453.087
806.243	473.942
806.371	461.692
806.499	455.183
806.627	453.875
806.755	456.413
806.883	451.154
807.012	452.923
807.140	452.837
807.268	436.827
807.396	447.750
807.524	445.144
807.652	452.250
807.780	448.231
807.908	443.913
808.037	456.000
808.165	451.625
808.293	437.192
808.421	432.510
808.549	428.644
808.677	431.288
808.805	446.183
808.933	432.298
809.062	427.913
809.190	441.308
809.318	435.760
809.446	424.510
809.574	437.048
809.702	425.337
809.830	421.433
809.958	435.452
810.087	427.567
810.215	421.481
810.343	425.644
810.471	422.615
810.599	412.788
810.727	423.942
810.855	412.423
810.983	419.885
811.112	413.731
811.240	411.750
811.368	405.933
811.496	414.942
811.624	411.404
811.752	407.615
811.880	416.567
812.008	406.615
812.137	423.635
812.265	404.519
812.393	406.106
812.521	394.644
812.649	403.183
812.777	391.635
812.905	406.365
813.033	407.375
813.162	395.596
813.290	393.769
813.418	396.808
813.546	391.202
813.674	387.337
813.802	393.308
813.930	386.702
814.058	386.115
814.187	386.490
814.315	382.587
814.443	384.490
814.571	381.865
814.699	376.337
814.827	381.298
814.955	387.029
815.083	376.365
815.212	386.029
815.340	376.308
815.468	387.154
815.596	372.788
815.724	378.288
815.852	379.962
815.980	370.558
816.108	371.904
816.237	374.442
816.365	383.394
816.493	369.048
816.621	380.077
816.749	361.519
816.877	437.856
817.005	380.500
817.133	374.519
817.262	368.510
817.390	364.942
817.518	370.202
817.646	359.067
817.774	355.740
817.902	353.587
818.030	354.865
818.158	359.240
818.287	354.663
818.415	350.798
818.543	349.798
818.671	354.337
818.799	346.423
818.927	343.538
819.055	372.837
819.183	350.856
819.312	363.433
819.440	348.000
819.568	347.385
819.696	346.510
819.824	351.413
819.952	343.269
820.080	342.202
820.208	341.029
820.337	350.115
820.465	341.231
820.593	347.558
820.721	339.058
820.849	343.077
820.977	335.240
821.105	339.500
821.233	334.192
821.362	344.635
821.490	336.837
821.618	338.288
821.746	342.442
821.874	331.077
822.002	325.721
822.130	332.702
822.258	334.510
822.387	327.548
822.515	334.288
822.643	326.019
822.771	331.038
822.899	337.231
823.027	325.529
823.155	332.212
823.283	338.375
823.412	334.587
823.540	323.856
823.668	318.192
823.796	331.635
823.924	320.798
824.052	322.885
824.180	323.769
824.308	322.692
824.437	332.740
824.565	321.260
824.693	309.856
824.821	313.644
824.949	326.433
825.077	320.490
825.205	310.538
825.333	314.952
825.462	322.038
825.590	315.538
825.718	313.279
825.846	314.615
825.974	314.433
826.102	313.144
826.230	314.577
826.358	322.087
826.487	312.269
826.615	307.394
826.743	305.519
826.871	316.202
826.999	308.606
827.127	309.096
827.255	311.038
827.383	299.375
827.512	303.452
827.640	313.019
827.768	321.452
827.896	297.096
828.024	312.798
828.152	304.933
828.280	303.942
828.408	294.663
828.537	298.740
828.665	299.808
828.793	297.404
828.921	300.721
829.049	300.510
829.177	299.538
829.305	294.221
829.433	299.260
829.562	294.308
829.690	296.231
829.818	302.058
829.946	293.933
830.074	289.260
830.202	287.510
830.330	295.644
830.458	281.298
830.587	299.202
830.715	287.269
830.843	285.952
830.971	292.221
831.099	293.587
831.227	315.567
831.355	286.115
831.483	288.087
831.612	289.404
831.740	282.346
831.868	282.654
831.996	293.452
832.124	286.317
832.252	293.250
832.380	286.625
832.508	285.779
832.637	285.365
832.765	290.087
832.893	286.365
833.021	280.750
833.149	273.154
833.277	284.913
833.405	286.346
833.533	273.798
833.662	282.375
833.790	277.337
833.918	280.250
834.046	277.481
834.174	274.837
834.302	285.529
834.430	274.702
834.558	275.692
834.687	282.365
834.815	275.933
834.943	275.721
835.071	276.538
835.199	277.606
835.327	271.952
835.455	282.904
835.583	271.471
835.712	269.308
835.840	275.885
835.968	270.163
836.096	282.183
836.224	267.740
836.352	276.635
836.480	268.183
836.608	264.817
836.737	272.981
836.865	267.567
836.993	275.615
837.121	280.202
837.249	273.279
837.377	261.548
837.505	257.317
837.633	263.346
837.762	268.740
837.890	260.538
838.018	269.192
838.146	261.327
838.274	264.394
838.402	263.875
838.530	283.462
838.658	265.365
838.787	269.308
838.915	258.250
839.043	269.538
839.171	265.942
839.299	269.375
839.427	283.962
839.555	269.548
839.683	258.971
839.812	259.365
839.940	254.615
840.068	261.962
840.196	286.327
840.324	280.683
840.452	269.365
840.580	257.337
840.708	247.952
840.837	261.058
840.965	255.250
841.093	255.721
841.221	260.952
841.349	255.731
841.477	251.933
841.605	252.346
841.733	256.029
841.862	262.740
841.990	256.596
842.118	250.625
842.246	251.500
842.374	245.385
842.502	263.010
842.630	250.510
842.758	248.683
842.887	260.981
843.015	264.231
843.143	248.548
843.271	249.250
843.399	251.933
843.527	249.894
843.655	244.952
843.783	247.288
843.912	244.942
844.040	241.212
844.168	251.231
844.296	260.952
844.424	250.433
844.552	253.577
844.680	251.346
844.808	248.471
844.937	245.337
845.065	242.990
845.193	261.962
845.321	250.625
845.449	249.933
845.577	245.971
845.705	243.413
845.833	241.433
845.962	248.577
846.090	245.952
846.218	253.904
846.346	252.615
846.474	244.856
846.602	239.885
846.730	247.577
846.858	242.115
846.987	237.125
847.115	247.087
847.243	251.183
847.371	234.692
847.499	243.010
847.627	245.712
847.755	236.933
847.883	249.875
848.012	250.606
848.140	236.087
848.268	238.731
848.396	243.404
848.524	252.404
848.652	239.519
848.780	233.673
848.908	241.923
849.037	240.500
849.165	233.346
849.293	242.240
849.421	234.740
849.549	240.385
849.677	238.788
849.805	242.952
849.933	235.413
850.062	244.048
850.190	239.644
850.318	233.702
850.446	242.606
850.574	238.962
850.702	233.952
850.830	230.510
850.958	237.798
851.087	239.365
851.215	230.990
851.343	237.048
851.471	237.567
851.599	239.250
851.727	243.856
851.855	230.471
851.983	241.000
852.112	236.625
852.240	238.913
852.368	246.817
852.496	231.538
852.624	236.096
852.752	238.875
852.880	238.260
853.008	234.663
853.137	237.471
853.265	236.240
853.393	233.269
853.521	227.615
853.649	241.163
853.777	230.231
853.905	228.250
854.033	227.375
854.162	227.462
854.290	230.000
854.418	244.846
854.546	259.442
854.674	250.740
854.802	236.250
854.930	226.173
855.058	238.202
855.187	227.010
855.315	256.135
855.443	231.327
855.571	230.538
855.699	237.125
855.827	223.779
855.955	226.567
856.083	228.173
856.212	226.413
856.340	229.048
856.468	228.952
856.596	227.692
856.724	235.433
856.852	240.135
856.980	222.346
857.108	221.750
857.237	217.712
857.365	233.865
857.493	231.163
857.621	222.288
857.749	225.490
857.877	222.433
858.005	222.375
858.133	224.721
858.262	219.375
858.390	221.644
858.518	220.106
858.646	232.462
858.774	215.865
858.902	223.048
859.030	225.625
859.158	227.375
859.287	219.875
859.415	227.317
859.543	222.760
859.671	224.606
859.799	234.442
859.927	220.875
860.055	218.971
860.183	216.096
860.312	222.692
860.440	222.058
860.568	212.740
860.696	227.327
860.824	231.904
860.952	214.404
861.080	225.106
861.208	222.721
861.337	222.260
861.465	227.625
861.593	219.683
861.721	226.760
861.849	226.721
861.977	219.490
862.105	220.029
862.233	216.317
862.362	216.654
862.490	217.423
862.618	217.385
862.746	217.365
862.874	223.337
863.002	220.625
863.130	219.173
863.258	223.173
863.387	226.519
863.515	219.933
863.643	231.202
863.771	220.010
863.899	218.692
864.027	223.952
864.155	239.962
864.283	218.644
864.412	213.923
864.540	219.962
864.668	211.875
864.796	217.702
864.924	213.702
865.052	209.558
865.180	231.481
865.308	220.654
865.437	215.423
865.565	212.413
865.693	218.788
865.821	212.587
865.949	236.212
866.077	219.462
866.205	214.596
866.333	218.538
866.462	206.356
866.590	220.721
866.718	218.096
866.846	207.423
866.974	215.481
867.102	207.288
867.230	220.683
867.358	216.000
867.487	224.173
867.615	223.404
867.743	216.808
867.871	221.942
867.999	214.365
868.127	224.558
868.255	229.635
868.383	206.788
868.512	212.769
868.640	214.000
868.768	208.269
868.896	222.971
869.024	211.663
869.152	211.144
869.280	210.596
869.408	207.577
869.537	210.519
869.665	207.731
869.793	215.981
869.921	212.702
870.049	206.183
870.177	207.740
870.305	208.462
870.433	212.837
870.562	216.250
870.690	210.942
870.818	219.635
870.946	204.000
871.074	206.567
871.202	210.779
871.330	207.038
871.458	213.298
871.587	210.163
871.715	212.250
871.843	215.173
871.971	216.558
872.099	199.913
872.227	212.894
872.355	208.846
872.483	206.115
872.612	213.875
872.740	212.154
872.868	209.125
872.996	214.019
873.124	218.731
873.252	209.760
873.380	201.250
873.508	218.356
873.637	215.433
873.765	204.971
873.893	205.673
874.021	208.731
874.149	207.875
874.277	210.144
874.405	214.933
874.533	211.356
874.662	208.250
874.790	210.365
874.918	204.683
875.046	215.029
875.174	206.231
875.302	208.317
875.430	203.221
875.558	212.663
875.687	215.962
875.815	209.038
875.943	213.962
876.071	210.577
876.199	211.212
876.327	206.692
876.455	206.760
876.583	204.433
876.712	219.519
876.840	208.202
876.968	210.442
877.096	207.067
877.224	208.163
877.352	199.058
877.480	209.433
877.608	216.500
877.737	211.673
877.865	204.115
877.993	211.519
878.121	208.817
878.249	206.894
878.377	203.894
878.505	209.721
878.633	207.702
878.762	203.606
878.890	206.106
879.018	212.173
879.146	203.385
879.274	228.779
879.402	210.885
879.530	207.798
879.658	208.375
879.787	210.404
879.915	206.913
880.043	205.587
880.171	236.817
880.299	208.798
880.427	209.952
880.555	204.519
880.683	207.173
880.812	207.990
880.940	206.750
881.068	210.471
881.196	199.827
881.324	202.192
881.452	199.865
881.580	208.904
881.708	213.298
881.837	209.442
881.965	207.894
882.093	201.702
882.221	199.288
882.349	200.481
882.477	205.750
882.605	208.952
882.733	210.587
882.862	201.981
882.990	214.846
883.118	210.962
883.246	212.635
883.374	207.029
883.502	211.029
883.630	208.654
883.758	207.000
883.887	209.038
884.015	209.673
884.143	210.240
884.271	206.865
884.399	198.875
884.527	209.048
884.655	199.481
884.783	205.673
884.912	224.010
885.040	210.404
885.168	200.663
885.296	216.712
885.424	205.500
885.552	207.990
885.680	219.231
885.808	210.567
885.937	210.538
886.065	216.971
886.193	206.519
886.321	202.856
886.449	203.404
886.577	205.769
886.705	212.423
886.833	198.462
886.962	206.846
887.090	209.904
887.218	202.779
887.346	203.692
887.474	201.135
887.602	202.846
887.730	199.462
887.858	199.212
887.987	201.404
888.115	205.644
888.243	205.923
888.371	214.538
888.499	199.096
888.627	202.173
888.755	209.433
888.883	201.904
889.012	204.106
889.140	203.317
889.268	205.702
889.396	193.135
889.524	211.115
889.652	196.394
889.780	198.048
889.908	202.452
890.037	210.856
890.165	201.433
890.293	208.077
890.421	204.846
890.549	193.000
890.677	195.365
890.805	205.413
890.933	198.731
891.062	201.279
891.190	203.231
891.318	196.019
891.446	199.894
891.574	197.163
891.702	199.721
891.830	201.827
891.958	209.817
892.087	205.654
892.215	204.096
892.343	201.250
892.471	209.019
892.599	193.135
892.727	205.356
892.855	220.981
892.983	191.981
893.112	196.962
893.240	210.462
893.368	195.471
893.496	209.067
893.624	203.308
893.752	221.077
893.880	206.865
894.008	202.683
894.137	199.865
894.265	206.471
894.393	199.462
894.521	207.240
894.649	204.837
894.777	196.788
894.905	237.971
895.033	196.779
895.162	196.856
895.290	205.798
895.418	204.356
895.546	234.962
895.674	207.010
895.802	242.000
895.930	203.462
896.058	197.462
896.187	199.837
896.315	195.654
896.443	206.644
896.571	223.663
896.699	195.942
896.827	198.029
896.955	202.750
897.083	204.721
897.212	201.019
897.340	201.404
897.468	199.240
897.596	203.644
897.724	200.596
897.852	192.577
897.980	194.788
898.108	205.827
898.237	198.971
898.365	195.625
898.493	202.856
898.621	195.798
898.749	198.962
898.877	197.279
899.005	198.750
899.133	198.173
899.262	213.077
899.390	198.529
899.518	204.663
899.646	192.635
899.774	190.990
899.902	194.808
900.030	209.683
900.158	198.846
900.287	199.413
900.415	191.577
900.543	197.077
900.671	205.875
900.799	195.183
900.927	194.106
901.055	204.663
901.183	207.471
901.312	204.529
901.440	192.433
901.568	195.452
901.696	195.433
901.824	189.423
901.952	193.971
902.080	202.913
902.208	193.106
902.337	208.048
902.465	194.365
902.593	206.894
902.721	214.125
902.849	215.250
902.977	198.135
903.105	197.577
903.233	198.779
903.362	188.115
903.490	201.144
903.618	195.260
903.746	189.625
903.874	198.462
904.002	193.808
904.130	208.106
904.258	189.683
904.387	199.875
904.515	187.471
904.643	198.202
904.771	195.625
904.899	191.625
905.027	197.856
905.155	196.577
905.283	189.990
905.412	205.558
905.540	198.779
905.668	191.625
905.796	195.029
905.924	196.365
906.052	199.625
906.180	198.519
906.308	191.644
906.437	190.346
906.565	199.067
906.693	202.192
906.821	190.635
906.949	191.183
907.077	188.154
907.205	200.510
907.333	187.567
907.462	190.433
907.590	194.231
907.718	191.260
907.846	198.221
907.974	191.087
908.102	194.452
908.230	192.394
908.358	192.779
908.487	191.413
908.615	200.731
908.743	202.010
908.871	196.567
908.999	192.817
909.127	196.154
909.255	203.856
909.383	188.433
909.512	185.875
909.640	204.163
909.768	193.250
909.896	197.913
910.024	201.365
910.152	195.731
910.280	203.212
910.408	188.029
910.537	189.010
910.665	198.433
910.793	196.038
910.921	198.971
911.049	202.971
911.177	204.077
911.305	196.038
911.433	222.750
911.562	197.298
911.690	193.077
911.818	196.212
911.946	194.529
912.074	200.106
912.202	191.279
912.330	207.894
912.458	187.510
912.587	194.106
912.715	196.173
912.843	209.250
912.971	200.048
913.099	215.548
913.227	203.365
913.355	201.029
913.483	205.962
913.612	206.721
913.740	227.106
913.868	200.471
