sample13u_at_750.00nm_cut_at_1060.50Y_01.dat
19.06.2023
11:19:43
cut middle at Y: 1060.50
top cursor: 1109 down cursor: 1012 mean of: 97 lines , 2560 datapoints
wavelength(nm)	intensity[arb. units]
585.996	1771.546
586.124	1721.753
586.252	1724.990
586.380	1719.186
586.508	1720.124
586.637	1727.165
586.765	1730.546
586.893	1732.619
587.021	1739.031
587.149	1732.876
587.277	1725.031
587.405	1736.113
587.533	1724.835
587.662	1742.948
587.790	1739.701
587.918	1749.340
588.046	1748.691
588.174	1758.361
588.302	1751.237
588.430	1748.567
588.558	1754.732
588.687	1754.144
588.815	1760.515
588.943	1779.680
589.071	1758.701
589.199	1766.371
589.327	1762.711
589.455	1766.072
589.583	1769.660
589.712	1776.918
589.840	1768.598
589.968	1758.979
590.096	1773.670
590.224	1774.835
590.352	1780.454
590.480	1777.175
590.608	1785.165
590.737	1767.155
590.865	1784.959
590.993	1793.247
591.121	1768.835
591.249	1776.629
591.377	1781.794
591.505	1771.804
591.633	1777.577
591.762	1798.691
591.890	1798.567
592.018	1777.093
592.146	1784.340
592.274	1793.186
592.402	1796.454
592.530	1791.577
592.658	1801.825
592.787	1805.196
592.915	1797.505
593.043	1807.186
593.171	1800.918
593.299	1818.536
593.427	1802.577
593.555	1825.722
593.683	1806.402
593.812	1823.639
593.940	1830.289
594.068	1817.990
594.196	1840.392
594.324	1825.526
594.452	1854.835
594.580	1849.660
594.708	1846.144
594.837	1855.320
594.965	1861.495
595.093	1863.402
595.221	1861.268
595.349	1878.670
595.477	1868.701
595.605	1865.742
595.733	1888.588
595.862	1882.093
595.990	1882.505
596.118	1885.227
596.246	1899.010
596.374	1899.897
596.502	1904.124
596.630	1909.629
596.758	1898.856
596.887	1918.567
597.015	1923.845
597.143	1894.278
597.271	1903.876
597.399	1918.258
597.527	1915.866
597.655	1909.247
597.783	1920.361
597.912	1906.918
598.040	1906.072
598.168	1908.732
598.296	1908.577
598.424	1905.309
598.552	1905.485
598.680	1904.443
598.808	1906.969
598.937	1910.732
599.065	1921.340
599.193	1914.062
599.321	1891.722
599.449	1925.485
599.577	1916.258
599.705	1924.175
599.833	1916.216
599.962	1907.887
600.090	1910.340
600.218	1918.546
600.346	1930.990
600.474	1920.093
600.602	1935.072
600.730	1919.371
600.858	1923.856
600.987	1930.000
601.115	1920.825
601.243	1917.052
601.371	1931.969
601.499	1933.969
601.627	1929.082
601.755	1941.639
601.883	1948.000
602.012	1955.144
602.140	1942.124
602.268	1963.814
602.396	1960.258
602.524	1965.598
602.652	1971.567
602.780	1975.443
602.908	1971.546
603.037	1987.680
603.165	1992.134
603.293	2014.227
603.421	2003.711
603.549	1996.093
603.677	2032.845
603.805	2016.082
603.933	2025.990
604.062	2031.526
604.190	2049.938
604.318	2047.082
604.446	2053.155
604.574	2044.629
604.702	2068.062
604.830	2054.639
604.958	2099.423
605.087	2086.320
605.215	2085.773
605.343	2101.619
605.471	2109.093
605.599	2107.443
605.727	2109.072
605.855	2110.515
605.983	2102.093
606.112	2148.124
606.240	2148.052
606.368	2125.722
606.496	2144.216
606.624	2138.887
606.752	2134.237
606.880	2137.299
607.008	2144.660
607.137	2156.979
607.265	2142.897
607.393	2168.082
607.521	2160.433
607.649	2153.113
607.777	2150.495
607.905	2160.887
608.033	2167.021
608.162	2150.649
608.290	2136.052
608.418	2183.072
608.546	2157.907
608.674	2180.412
608.802	2152.536
608.930	2169.072
609.058	2156.165
609.187	2168.495
609.315	2152.330
609.443	2164.845
609.571	2154.660
609.699	2158.144
609.827	2148.938
609.955	2155.093
610.083	2144.381
610.212	2153.948
610.340	2153.763
610.468	2157.474
610.596	2166.577
610.724	2143.928
610.852	2157.928
610.980	2169.711
611.108	2169.598
611.237	2165.340
611.365	2162.330
611.493	2159.062
611.621	2175.938
611.749	2190.784
611.877	2199.897
612.005	2185.711
612.133	2183.753
612.262	2176.340
612.390	2198.443
612.518	2204.814
612.646	2196.144
612.774	2210.433
612.902	2221.082
613.030	2220.289
613.158	2225.134
613.287	2217.536
613.415	2232.794
613.543	2235.526
613.671	2243.619
613.799	2231.454
613.927	2231.103
614.055	2254.454
614.183	2264.959
614.312	2254.835
614.440	2265.711
614.568	2265.670
614.696	2289.423
614.824	2271.608
614.952	2282.979
615.080	2294.784
615.208	2295.990
615.337	2305.918
615.465	2300.485
615.593	2321.402
615.721	2316.876
615.849	2315.680
615.977	2325.784
616.105	2310.629
616.233	2318.794
616.362	2331.423
616.490	2331.237
616.618	2339.186
616.746	2332.866
616.874	2370.103
617.002	2349.907
617.130	2358.237
617.258	2346.938
617.387	2335.206
617.515	2350.392
617.643	2369.773
617.771	2359.938
617.899	2365.258
618.027	2351.825
618.155	2368.784
618.283	2378.351
618.412	2358.918
618.540	2373.299
618.668	2388.093
618.796	2364.742
618.924	2384.887
619.052	2378.227
619.180	2385.454
619.308	2380.443
619.437	2377.598
619.565	2384.742
619.693	2385.103
619.821	2391.216
619.949	2391.134
620.077	2400.412
620.205	2397.062
620.333	2392.866
620.462	2417.443
620.590	2402.546
620.718	2398.722
620.846	2398.165
620.974	2424.072
621.102	2419.021
621.230	2411.629
621.358	2408.330
621.487	2399.856
621.615	2421.969
621.743	2416.175
621.871	2420.247
621.999	2424.876
622.127	2415.722
622.255	2419.763
622.383	2426.897
622.512	2410.165
622.640	2443.866
622.768	2425.835
622.896	2425.124
623.024	2408.371
623.152	2452.082
623.280	2421.124
623.408	2417.608
623.537	2435.629
623.665	2429.186
623.793	2438.031
623.921	2418.062
624.049	2432.784
624.177	2435.464
624.305	2428.175
624.433	2437.825
624.562	2443.536
624.690	2437.371
624.818	2440.691
624.946	2442.711
625.074	2432.309
625.202	2435.918
625.330	2422.000
625.458	2451.773
625.587	2447.619
625.715	2444.454
625.843	2455.062
625.971	2440.000
626.099	2447.186
626.227	2452.041
626.355	2443.206
626.483	2473.175
626.612	2451.351
626.740	2441.381
626.868	2474.691
626.996	2449.340
627.124	2453.247
627.252	2446.959
627.380	2449.784
627.508	2454.536
627.637	2451.206
627.765	2467.938
627.893	2483.443
628.021	2443.320
628.149	2467.464
628.277	2483.402
628.405	2495.897
628.533	2478.505
628.662	2468.959
628.790	2483.887
628.918	2486.814
629.046	2489.299
629.174	2502.186
629.302	2515.608
629.430	2484.959
629.558	2495.320
629.687	2514.639
629.815	2500.268
629.943	2529.814
630.071	2519.938
630.199	2515.155
630.327	2514.876
630.455	2509.557
630.583	2551.330
630.712	2536.897
630.840	2525.371
630.968	2551.175
631.096	2538.711
631.224	2516.464
631.352	2530.680
631.480	2537.278
631.608	2549.464
631.737	2585.835
631.865	2636.320
631.993	2552.763
632.121	2592.722
632.249	2607.639
632.377	2566.546
632.505	2567.278
632.633	2546.722
632.762	2585.701
632.890	2599.567
633.018	2546.639
633.146	2570.196
633.274	2580.443
633.402	2565.021
633.530	2529.247
633.658	2621.742
633.787	2549.918
633.915	2598.340
634.043	2561.175
634.171	2571.660
634.299	2584.825
634.427	2597.124
634.555	2599.031
634.683	2582.309
634.812	2560.021
634.940	2581.701
635.068	2547.763
635.196	2574.711
635.324	2576.423
635.452	2600.979
635.580	2552.485
635.708	2557.443
635.837	2587.227
635.965	2558.732
636.093	2546.526
636.221	2539.918
636.349	2567.402
636.477	2520.639
636.605	2600.155
636.733	2526.268
636.862	2520.454
636.990	2532.742
637.118	2548.309
637.246	2519.536
637.374	2533.443
637.502	2522.052
637.630	2527.351
637.758	2532.567
637.887	2496.577
638.015	2514.227
638.143	2511.629
638.271	2503.938
638.399	2517.330
638.527	2499.268
638.655	2506.124
638.783	2548.546
638.912	2531.474
639.040	2510.423
639.168	2518.433
639.296	2511.134
639.424	2544.825
639.552	2505.041
639.680	2500.443
639.808	2497.392
639.937	2488.485
640.065	2502.495
640.193	2544.165
640.321	2506.876
640.449	2532.784
640.577	2517.289
640.705	2491.144
640.833	2530.247
640.962	2522.134
641.090	2515.103
641.218	2505.041
641.346	2501.381
641.474	2513.928
641.602	2510.165
641.730	2516.134
641.858	2513.732
641.987	2537.082
642.115	2520.598
642.243	2525.196
642.371	2533.351
642.499	2526.423
642.627	2536.216
642.755	2518.278
642.883	2547.515
643.012	2514.474
643.140	2529.062
643.268	2525.856
643.396	2545.825
643.524	2607.299
643.652	2539.278
643.780	2549.845
643.908	2531.784
644.037	2569.309
644.165	2533.959
644.293	2559.412
644.421	2545.784
644.549	2574.351
644.677	2558.876
644.805	2581.433
644.933	2554.742
645.062	2553.062
645.190	2574.031
645.318	2586.485
645.446	2580.742
645.574	2564.206
645.702	2557.010
645.830	2629.165
645.958	2581.000
646.087	2612.691
646.215	2565.876
646.343	2651.258
646.471	2581.948
646.599	2598.794
646.727	2567.515
646.855	2569.392
646.983	2602.392
647.112	2571.412
647.240	2655.216
647.368	2563.443
647.496	2588.701
647.624	2549.021
647.752	2553.567
647.880	2565.557
648.008	2572.320
648.137	2554.701
648.265	2545.289
648.393	2559.031
648.521	2563.526
648.649	2571.629
648.777	2565.474
648.905	2530.526
649.033	2547.464
649.162	2561.784
649.290	2525.897
649.418	2544.928
649.546	2539.227
649.674	2553.670
649.802	2546.289
649.930	2558.557
650.058	2541.866
650.187	2533.072
650.315	2542.340
650.443	2552.258
650.571	2524.897
650.699	2527.206
650.827	2526.979
650.955	2534.732
651.083	2516.990
651.212	2526.670
651.340	2553.186
651.468	2529.351
651.596	2518.567
651.724	2514.773
651.852	2514.340
651.980	2497.052
652.108	2543.093
652.237	2518.938
652.365	2503.773
652.493	2497.175
652.621	2498.206
652.749	2492.093
652.877	2507.258
653.005	2505.351
653.133	2507.701
653.262	2502.330
653.390	2508.629
653.518	2526.299
653.646	2494.124
653.774	2548.124
653.902	2499.000
654.030	2484.856
654.158	2477.103
654.287	2473.629
654.415	2477.794
654.543	2484.608
654.671	2472.536
654.799	2473.588
654.927	2473.691
655.055	2461.381
655.183	2471.938
655.312	2447.268
655.440	2470.907
655.568	2462.052
655.696	2496.330
655.824	2495.433
655.952	2460.866
656.080	2456.732
656.208	2499.876
656.337	2445.515
656.465	2476.619
656.593	2468.309
656.721	2464.155
656.849	2463.134
656.977	2453.454
657.105	2442.526
657.233	2442.392
657.362	2435.289
657.490	2439.196
657.618	2429.763
657.746	2442.680
657.874	2419.804
658.002	2425.062
658.130	2432.196
658.258	2437.165
658.387	2428.309
658.515	2419.175
658.643	2413.186
658.771	2417.392
658.899	2420.155
659.027	2420.134
659.155	2413.649
659.283	2424.825
659.412	2397.454
659.540	2413.763
659.668	2413.990
659.796	2386.959
659.924	2404.216
660.052	2389.546
660.180	2388.412
660.308	2405.969
660.437	2390.588
660.565	2374.000
660.693	2394.938
660.821	2383.485
660.949	2395.320
661.077	2374.268
661.205	2383.701
661.333	2369.320
661.462	2388.402
661.590	2391.918
661.718	2376.835
661.846	2375.371
661.974	2371.268
662.102	2373.876
662.230	2379.072
662.358	2371.320
662.487	2367.845
662.615	2345.887
662.743	2369.082
662.871	2356.258
662.999	2378.753
663.127	2358.052
663.255	2363.928
663.383	2375.155
663.512	2363.598
663.640	2377.165
663.768	2352.278
663.896	2368.402
664.024	2352.598
664.152	2366.722
664.280	2367.856
664.408	2350.557
664.537	2381.629
664.665	2364.649
664.793	2351.309
664.921	2346.691
665.049	2352.134
665.177	2372.392
665.305	2359.330
665.433	2354.247
665.562	2355.608
665.690	2341.742
665.818	2361.072
665.946	2363.732
666.074	2365.845
666.202	2352.794
666.330	2346.691
666.458	2353.000
666.587	2332.763
666.715	2356.763
666.843	2349.237
666.971	2350.691
667.099	2350.031
667.227	2371.598
667.355	2356.567
667.483	2346.887
667.612	2346.485
667.740	2358.062
667.868	2358.103
667.996	2352.299
668.124	2344.742
668.252	2369.464
668.380	2321.309
668.508	2361.742
668.637	2336.784
668.765	2360.402
668.893	2344.443
669.021	2341.825
669.149	2347.309
669.277	2326.412
669.405	2329.113
669.533	2336.093
669.662	2341.918
669.790	2320.268
669.918	2341.505
670.046	2328.557
670.174	2316.907
670.302	2333.474
670.430	2310.742
670.558	2315.206
670.687	2313.825
670.815	2309.722
670.943	2316.536
671.071	2301.732
671.199	2304.113
671.327	2295.938
671.455	2307.454
671.583	2292.577
671.712	2295.526
671.840	2276.062
671.968	2282.670
672.096	2266.289
672.224	2267.340
672.352	2267.969
672.480	2271.856
672.608	2262.454
672.737	2255.722
672.865	2251.557
672.993	2241.660
673.121	2254.082
673.249	2250.361
673.377	2233.887
673.505	2238.557
673.633	2216.165
673.762	2225.784
673.890	2234.897
674.018	2217.299
674.146	2213.196
674.274	2223.258
674.402	2203.598
674.530	2199.515
674.658	2199.701
674.787	2186.804
674.915	2188.722
675.043	2177.412
675.171	2189.155
675.299	2187.010
675.427	2177.258
675.555	2176.186
675.683	2169.918
675.812	2153.876
675.940	2146.598
676.068	2164.959
676.196	2144.134
676.324	2158.412
676.452	2142.763
676.580	2141.361
676.708	2126.041
676.837	2156.361
676.965	2123.938
677.093	2135.227
677.221	2118.351
677.349	2103.041
677.477	2110.237
677.605	2106.608
677.733	2109.021
677.862	2095.268
677.990	2103.309
678.118	2096.732
678.246	2077.340
678.374	2081.423
678.502	2084.062
678.630	2063.443
678.758	2072.825
678.887	2066.454
679.015	2081.887
679.143	2064.423
679.271	2070.794
679.399	2060.010
679.527	2045.598
679.655	2057.680
679.783	2062.495
679.912	2045.392
680.040	2051.186
680.168	2044.845
680.296	2037.392
680.424	2046.938
680.552	2035.639
680.680	2027.320
680.808	2023.825
680.937	2028.526
681.065	2034.206
681.193	2027.289
681.321	2021.629
681.449	2021.299
681.577	2023.320
681.705	1999.371
681.833	2013.196
681.962	2002.722
682.090	2017.443
682.218	2013.402
682.346	2022.082
682.474	2001.845
682.602	2018.464
682.730	2001.392
682.858	2007.670
682.987	2012.000
683.115	2001.639
683.243	1985.928
683.371	1984.763
683.499	1984.670
683.627	2012.804
683.755	1980.113
683.883	1997.433
684.012	1977.680
684.140	1972.948
684.268	1983.649
684.396	1984.464
684.524	1980.979
684.652	2000.567
684.780	1993.526
684.908	1990.835
685.037	1990.722
685.165	1983.010
685.293	1985.887
685.421	1972.505
685.549	1969.948
685.677	1986.320
685.805	1973.722
685.933	1990.825
686.062	1968.361
686.190	1974.268
686.318	1985.247
686.446	1969.918
686.574	1967.979
686.702	1980.495
686.830	1970.918
686.958	1967.938
687.087	1983.227
687.215	1954.753
687.343	1957.021
687.471	1961.701
687.599	1957.237
687.727	1955.763
687.855	1945.577
687.983	1951.103
688.112	1959.959
688.240	1943.619
688.368	1958.381
688.496	1947.753
688.624	1946.536
688.752	1941.784
688.880	1940.629
689.008	1935.763
689.137	1926.567
689.265	1935.021
689.393	1939.763
689.521	1937.227
689.649	1920.320
689.777	1909.773
689.905	1926.763
690.033	1907.031
690.162	1897.804
690.290	1904.361
690.418	1907.722
690.546	1889.588
690.674	1920.289
690.802	1888.948
690.930	1901.278
691.058	1887.175
691.187	1869.711
691.315	1893.876
691.443	1884.546
691.571	1873.144
691.699	1855.299
691.827	1853.938
691.955	1860.876
692.083	1851.278
692.212	1853.299
692.340	1840.722
692.468	1848.402
692.596	1843.155
692.724	1829.299
692.852	1824.000
692.980	1825.000
693.108	1832.165
693.237	1826.041
693.365	1807.742
693.493	1803.897
693.621	1794.577
693.749	1797.381
693.877	1795.144
694.005	1787.495
694.133	1798.722
694.262	1790.361
694.390	1778.402
694.518	1771.598
694.646	1773.876
694.774	1784.010
694.902	1766.825
695.030	1796.474
695.158	1757.433
695.287	1766.495
695.415	1758.031
695.543	1768.268
695.671	1738.237
695.799	1737.660
695.927	1733.691
696.055	1734.031
696.183	1755.701
696.312	1739.464
696.440	1724.186
696.568	1723.763
696.696	1716.402
696.824	1717.742
696.952	1717.041
697.080	1697.897
697.208	1711.959
697.337	1694.392
697.465	1705.258
697.593	1700.804
697.721	1704.814
697.849	1698.433
697.977	1695.711
698.105	1691.495
698.233	1687.330
698.362	1674.196
698.490	1679.433
698.618	1672.216
698.746	1670.557
698.874	1667.835
699.002	1669.124
699.130	1655.423
699.258	1672.175
699.387	1652.691
699.515	1650.082
699.643	1651.237
699.771	1647.031
699.899	1633.041
700.027	1628.021
700.155	1636.155
700.283	1634.433
700.412	1617.598
700.540	1626.381
700.668	1616.186
700.796	1616.320
700.924	1606.495
701.052	1597.691
701.180	1606.175
701.308	1602.196
701.437	1588.856
701.565	1587.577
701.693	1580.804
701.821	1588.825
701.949	1575.732
702.077	1564.505
702.205	1571.804
702.333	1564.918
702.462	1565.918
702.590	1554.711
702.718	1566.155
702.846	1538.680
702.974	1541.897
703.102	1532.928
703.230	1535.845
703.358	1520.443
703.487	1517.165
703.615	1512.639
703.743	1499.278
703.871	1503.639
703.999	1493.804
704.127	1489.825
704.255	1492.268
704.383	1485.392
704.512	1484.546
704.640	1479.505
704.768	1470.526
704.896	1462.216
705.024	1455.361
705.152	1449.454
705.280	1457.876
705.408	1449.629
705.537	1443.330
705.665	1447.134
705.793	1435.124
705.921	1424.753
706.049	1432.598
706.177	1413.990
706.305	1422.990
706.433	1416.990
706.562	1418.649
706.690	1405.010
706.818	1399.144
706.946	1399.495
707.074	1397.144
707.202	1380.165
707.330	1368.247
707.458	1376.381
707.587	1366.196
707.715	1374.845
707.843	1354.186
707.971	1359.330
708.099	1352.412
708.227	1345.206
708.355	1343.732
708.483	1349.041
708.612	1356.402
708.740	1338.907
708.868	1323.804
708.996	1330.052
709.124	1329.433
709.252	1328.732
709.380	1319.990
709.508	1309.443
709.637	1310.052
709.765	1308.454
709.893	1310.237
710.021	1302.031
710.149	1308.206
710.277	1304.062
710.405	1291.887
710.533	1290.979
710.662	1277.825
710.790	1297.794
710.918	1281.258
711.046	1295.186
711.174	1283.010
711.302	1272.804
711.430	1274.526
711.558	1271.763
711.687	1263.464
711.815	1263.990
711.943	1264.742
712.071	1266.485
712.199	1252.278
712.327	1256.165
712.455	1253.557
712.583	1254.660
712.712	1256.258
712.840	1245.175
712.968	1240.031
713.096	1236.330
713.224	1246.268
713.352	1237.278
713.480	1225.680
713.608	1229.649
713.737	1222.392
713.865	1222.969
713.993	1222.412
714.121	1209.763
714.249	1225.361
714.377	1220.701
714.505	1214.814
714.633	1206.299
714.762	1205.165
714.890	1202.711
715.018	1204.247
715.146	1198.856
715.274	1186.423
715.402	1191.588
715.530	1199.887
715.658	1175.959
715.787	1189.619
715.915	1189.567
716.043	1194.536
716.171	1184.041
716.299	1192.979
716.427	1182.443
716.555	1178.330
716.683	1172.660
716.812	1163.670
716.940	1169.598
717.068	1157.629
717.196	1168.041
717.324	1155.773
717.452	1159.124
717.580	1155.124
717.708	1149.660
717.837	1151.309
717.965	1135.227
718.093	1141.546
718.221	1131.113
718.349	1131.082
718.477	1141.598
718.605	1119.887
718.733	1133.856
718.862	1120.845
718.990	1117.979
719.118	1120.835
719.246	1115.588
719.374	1108.588
719.502	1111.237
719.630	1109.526
719.758	1107.536
719.887	1090.866
720.015	1091.938
720.143	1086.216
720.271	1092.278
720.399	1087.361
720.527	1088.856
720.655	1082.082
720.783	1068.598
720.912	1074.155
721.040	1068.753
721.168	1069.588
721.296	1057.433
721.424	1058.237
721.552	1065.299
721.680	1050.412
721.808	1051.979
721.937	1051.979
722.065	1045.722
722.193	1039.598
722.321	1037.330
722.449	1032.711
722.577	1027.361
722.705	1020.701
722.833	1013.856
722.962	1023.216
723.090	1003.918
723.218	1007.299
723.346	1005.680
723.474	1007.928
723.602	1000.165
723.730	996.258
723.858	982.082
723.987	982.247
724.115	985.918
724.243	979.680
724.371	969.588
724.499	978.732
724.627	979.093
724.755	979.144
724.883	970.948
725.012	965.835
725.140	958.526
725.268	957.041
725.396	952.278
725.524	946.505
725.652	948.144
725.780	940.165
725.908	936.454
726.037	933.402
726.165	925.701
726.293	931.649
726.421	920.165
726.549	921.309
726.677	922.763
726.805	924.196
726.933	919.598
727.062	899.907
727.190	903.619
727.318	910.722
727.446	904.784
727.574	907.010
727.702	890.742
727.830	891.515
727.958	889.124
728.087	884.485
728.215	885.825
728.343	876.021
728.471	878.629
728.599	871.825
728.727	874.773
728.855	867.629
728.983	858.340
729.112	865.165
729.240	857.041
729.368	859.309
729.496	854.103
729.624	851.309
729.752	849.021
729.880	849.814
730.008	855.918
730.137	843.979
730.265	848.938
730.393	840.371
730.521	830.990
730.649	836.887
730.777	830.567
730.905	822.948
731.033	827.845
731.162	820.258
731.290	817.113
731.418	819.753
731.546	820.495
731.674	808.763
731.802	814.928
731.930	802.897
732.058	805.000
732.187	805.876
732.315	800.320
732.443	799.784
732.571	794.608
732.699	795.691
732.827	793.155
732.955	790.959
733.083	796.412
733.212	788.495
733.340	787.093
733.468	790.134
733.596	787.990
733.724	776.474
733.852	781.546
733.980	776.000
734.108	777.443
734.237	776.062
734.365	768.526
734.493	770.608
734.621	760.866
734.749	766.856
734.877	767.763
735.005	763.959
735.133	766.670
735.262	759.907
735.390	751.495
735.518	754.649
735.646	747.629
735.774	752.557
735.902	740.588
736.030	744.567
736.158	746.918
736.287	737.268
736.415	742.021
736.543	743.722
736.671	738.526
736.799	734.423
736.927	726.711
737.055	733.856
737.183	733.134
737.312	727.608
737.440	713.897
737.568	726.227
737.696	721.258
737.824	712.557
737.952	720.515
738.080	713.515
738.208	715.876
738.337	700.619
738.465	708.330
738.593	702.010
738.721	702.515
738.849	696.536
738.977	695.268
739.105	694.515
739.233	688.299
739.362	690.289
739.490	683.887
739.618	681.948
739.746	680.155
739.874	677.938
740.002	686.856
740.130	671.258
740.258	673.959
740.387	675.505
740.515	670.124
740.643	667.990
740.771	669.485
740.899	666.969
741.027	658.515
741.155	665.330
741.283	659.144
741.412	651.629
741.540	649.041
741.668	649.969
741.796	648.412
741.924	650.144
742.052	647.856
742.180	639.392
742.308	634.371
742.437	635.835
742.565	633.402
742.693	631.825
742.821	629.969
742.949	622.062
743.077	622.082
743.205	618.381
743.333	619.959
743.462	616.753
743.590	615.371
743.718	609.825
743.846	605.485
743.974	608.093
744.102	603.351
744.230	606.887
744.358	599.340
744.487	598.134
744.615	592.247
744.743	589.773
744.871	591.330
744.999	589.505
745.127	583.588
745.255	580.536
745.383	583.485
745.512	567.928
745.640	568.536
745.768	576.165
745.896	571.722
746.024	571.887
746.152	563.000
746.280	573.773
746.408	554.021
746.537	562.691
746.665	557.845
746.793	560.464
746.921	553.351
747.049	554.299
747.177	547.165
747.305	546.186
747.433	544.598
747.562	540.794
747.690	540.351
747.818	543.918
747.946	534.938
748.074	537.155
748.202	534.845
748.330	533.856
748.458	536.536
748.587	521.918
748.715	518.227
748.843	525.196
748.971	517.959
749.099	516.680
749.227	519.557
749.355	511.515
749.483	517.804
749.612	509.000
749.740	503.495
749.868	511.619
749.996	505.608
750.124	506.567
750.252	502.196
750.380	501.330
750.508	501.680
750.637	494.392
750.765	494.062
750.893	494.134
751.021	490.742
751.149	493.124
751.277	486.773
751.405	482.124
751.533	482.753
751.662	493.526
751.790	480.010
751.918	481.186
752.046	477.371
752.174	474.464
752.302	470.577
752.430	477.866
752.558	462.907
752.687	468.804
752.815	467.649
752.943	463.072
753.071	462.072
753.199	461.268
753.327	456.866
753.455	454.113
753.583	452.186
753.712	447.598
753.840	448.165
753.968	447.845
754.096	439.247
754.224	445.402
754.352	437.175
754.480	434.402
754.608	442.423
754.737	430.711
754.865	435.010
754.993	437.082
755.121	429.866
755.249	426.155
755.377	423.155
755.505	422.990
755.633	428.639
755.762	418.619
755.890	418.412
756.018	409.124
756.146	413.278
756.274	408.206
756.402	404.216
756.530	407.247
756.658	412.330
756.787	402.557
756.915	400.897
757.043	396.948
757.171	402.814
757.299	397.629
757.427	396.454
757.555	395.186
757.683	392.938
757.812	389.845
757.940	385.722
758.068	384.134
758.196	383.866
758.324	381.804
758.452	382.000
758.580	372.134
758.708	375.062
758.837	371.052
758.965	370.144
759.093	368.794
759.221	371.340
759.349	370.052
759.477	363.175
759.605	367.000
759.733	364.763
759.862	366.216
759.990	358.134
760.118	353.351
760.246	353.041
760.374	348.082
760.502	351.103
760.630	351.990
760.758	347.722
760.887	345.227
761.015	339.649
761.143	340.495
761.271	340.763
761.399	336.464
761.527	337.897
761.655	331.670
761.783	333.062
761.912	335.773
762.040	329.010
762.168	325.175
762.296	329.175
762.424	329.186
762.552	321.299
762.680	319.495
762.808	317.351
762.937	315.515
763.065	318.103
763.193	316.412
763.321	312.691
763.449	312.876
763.577	310.825
763.705	307.856
763.833	312.299
763.962	305.526
764.090	302.515
764.218	300.216
764.346	300.464
764.474	304.186
764.602	302.887
764.730	296.165
764.858	304.062
764.987	295.969
765.115	294.268
765.243	293.423
765.371	289.320
765.499	291.309
765.627	291.021
765.755	289.784
765.883	287.629
766.012	286.598
766.140	284.216
766.268	284.608
766.396	283.825
766.524	281.948
766.652	275.887
766.780	277.948
766.908	274.897
767.037	276.000
767.165	276.423
767.293	273.443
767.421	273.598
767.549	270.454
767.677	272.052
767.805	267.062
767.933	270.835
768.062	271.979
768.190	269.691
768.318	269.072
768.446	270.433
768.574	268.381
768.702	267.041
768.830	267.495
768.958	260.588
769.087	262.907
769.215	260.763
769.343	262.825
769.471	262.454
769.599	265.144
769.727	261.515
769.855	259.381
769.983	260.371
770.112	255.309
770.240	252.557
770.368	258.546
770.496	256.216
770.624	254.134
770.752	255.969
770.880	249.711
771.008	253.381
771.137	250.887
771.265	253.381
771.393	247.979
771.521	246.371
771.649	244.433
771.777	248.412
771.905	247.495
772.033	250.093
772.162	248.113
772.290	244.268
772.418	245.052
772.546	242.010
772.674	244.309
772.802	236.701
772.930	241.402
773.058	234.979
773.187	237.103
773.315	242.619
773.443	236.866
773.571	233.227
773.699	237.691
773.827	233.392
773.955	233.948
774.083	237.196
774.212	235.206
774.340	231.330
774.468	229.598
774.596	226.608
774.724	230.124
774.852	229.732
774.980	229.670
775.108	225.381
775.237	224.485
775.365	225.072
775.493	228.495
775.621	227.113
775.749	223.711
775.877	226.928
776.005	224.351
776.133	225.351
776.262	224.052
776.390	219.907
776.518	218.062
776.646	221.010
776.774	220.928
776.902	218.804
777.030	215.763
777.158	217.670
777.287	214.691
777.415	219.144
777.543	216.134
777.671	216.113
777.799	213.990
777.927	216.938
778.055	214.969
778.183	211.897
778.312	211.608
778.440	209.351
778.568	209.660
778.696	206.773
778.824	211.433
778.952	207.052
779.080	206.062
779.208	203.825
779.337	205.206
779.465	209.825
779.593	204.062
779.721	204.515
779.849	202.825
779.977	200.928
780.105	201.052
780.233	197.144
780.362	197.515
780.490	199.464
780.618	199.216
780.746	197.546
780.874	196.969
781.002	192.361
781.130	195.196
781.258	195.835
781.387	195.144
781.515	195.588
781.643	194.309
781.771	194.093
781.899	194.546
782.027	193.753
782.155	191.423
782.283	189.608
782.412	190.124
782.540	188.371
782.668	189.186
782.796	185.948
782.924	189.804
783.052	188.082
783.180	186.928
783.308	189.433
783.437	186.918
783.565	184.804
783.693	185.722
783.821	184.454
783.949	185.536
784.077	183.371
784.205	182.711
784.333	183.206
784.462	181.732
784.590	188.608
784.718	180.763
784.846	178.546
784.974	180.268
785.102	179.567
785.230	180.072
785.358	176.412
785.487	177.804
785.615	174.990
785.743	175.381
785.871	175.371
785.999	177.010
786.127	174.784
786.255	177.835
786.383	174.186
786.512	172.990
786.640	173.144
786.768	173.784
786.896	172.959
787.024	174.918
787.152	170.216
787.280	173.938
787.408	171.412
787.537	169.536
787.665	172.928
787.793	168.247
787.921	172.113
788.049	171.340
788.177	168.495
788.305	168.072
788.433	168.959
788.562	166.361
788.690	167.619
788.818	163.423
788.946	167.856
789.074	163.144
789.202	165.433
789.330	166.072
789.458	166.216
789.587	166.876
789.715	163.258
789.843	164.021
789.971	163.948
790.099	163.330
790.227	159.495
790.355	158.845
790.483	161.309
790.612	160.969
790.740	160.722
790.868	163.577
790.996	161.361
791.124	160.948
791.252	157.918
791.380	157.938
791.508	155.784
791.637	159.340
791.765	156.320
791.893	154.918
792.021	157.216
792.149	155.402
792.277	156.309
792.405	160.474
792.533	154.990
792.662	154.062
792.790	157.948
792.918	155.515
793.046	150.526
793.174	154.309
793.302	154.340
793.430	153.361
793.558	151.979
793.687	150.216
793.815	152.144
793.943	150.320
794.071	148.546
794.199	147.804
794.327	148.629
794.455	147.412
794.583	148.309
794.712	149.124
794.840	147.876
794.968	146.237
795.096	146.186
795.224	146.918
795.352	146.959
795.480	145.041
795.608	149.433
795.737	149.021
795.865	146.866
795.993	143.887
796.121	147.021
796.249	145.010
796.377	143.546
796.505	142.722
796.633	147.402
796.762	142.093
796.890	145.742
797.018	142.082
797.146	143.505
797.274	141.031
797.402	141.268
797.530	139.320
797.658	141.660
797.787	141.804
797.915	141.392
798.043	140.732
798.171	141.330
798.299	138.062
798.427	139.206
798.555	137.299
798.683	137.619
798.812	137.454
798.940	138.619
799.068	137.979
799.196	135.423
799.324	137.062
799.452	138.186
799.580	134.732
799.708	137.381
799.837	132.691
799.965	132.454
800.093	135.216
800.221	137.351
800.349	135.680
800.477	131.433
800.605	134.959
800.733	134.144
800.862	135.784
800.990	136.216
801.118	132.773
801.246	132.144
801.374	131.897
801.502	132.216
801.630	131.701
801.758	133.227
801.887	129.206
802.015	129.784
802.143	131.629
802.271	132.577
802.399	130.144
802.527	129.959
802.655	129.649
802.783	130.742
802.912	129.897
803.040	129.753
803.168	127.835
803.296	131.268
803.424	128.021
803.552	127.134
803.680	127.567
803.808	126.361
803.937	125.619
804.065	127.144
804.193	127.711
804.321	125.361
804.449	126.505
804.577	126.660
804.705	127.763
804.833	125.691
804.962	125.474
805.090	124.299
805.218	125.093
805.346	124.619
805.474	124.866
805.602	126.742
805.730	123.526
805.858	126.722
805.987	126.000
806.115	124.289
806.243	125.227
806.371	122.144
806.499	124.093
806.627	122.031
806.755	124.907
806.883	124.103
807.012	121.000
807.140	121.897
807.268	121.577
807.396	121.495
807.524	121.485
807.652	121.701
807.780	123.082
807.908	119.474
808.037	120.608
808.165	120.722
808.293	121.577
808.421	121.608
808.549	121.227
808.677	120.299
808.805	122.062
808.933	120.175
809.062	120.526
809.190	122.732
809.318	120.443
809.446	121.268
809.574	116.588
809.702	120.082
809.830	120.062
809.958	119.124
810.087	119.753
810.215	121.608
810.343	121.144
810.471	119.423
810.599	118.000
810.727	120.216
810.855	117.082
810.983	119.969
811.112	119.464
811.240	114.804
811.368	117.485
811.496	118.567
811.624	116.835
811.752	116.062
811.880	118.113
812.008	116.361
812.137	115.753
812.265	116.680
812.393	115.155
812.521	114.876
812.649	115.639
812.777	114.938
812.905	113.928
813.033	115.784
813.162	114.392
813.290	116.928
813.418	115.330
813.546	116.021
813.674	113.557
813.802	114.433
813.930	113.268
814.058	113.959
814.187	115.546
814.315	114.155
814.443	112.835
814.571	111.876
814.699	114.186
814.827	116.588
814.955	114.165
815.083	113.505
815.212	112.340
815.340	114.701
815.468	113.227
815.596	112.907
815.724	113.402
815.852	111.577
815.980	113.938
816.108	112.227
816.237	112.309
816.365	111.278
816.493	111.072
816.621	112.361
816.749	112.969
816.877	110.876
817.005	110.979
817.133	112.299
817.262	111.515
817.390	113.443
817.518	113.072
817.646	110.670
817.774	111.897
817.902	112.216
818.030	110.804
818.158	112.082
818.287	111.175
818.415	111.000
818.543	109.289
818.671	110.773
818.799	111.412
818.927	109.536
819.055	110.103
819.183	112.619
819.312	109.814
819.440	110.144
819.568	111.237
819.696	110.588
819.824	109.845
819.952	108.835
820.080	107.835
820.208	107.835
820.337	109.629
820.465	108.299
820.593	107.670
820.721	108.072
820.849	106.845
820.977	109.227
821.105	110.289
821.233	109.835
821.362	109.134
821.490	109.113
821.618	108.216
821.746	107.371
821.874	106.186
822.002	106.289
822.130	107.546
822.258	108.299
822.387	106.907
822.515	107.454
822.643	106.361
822.771	105.526
822.899	107.062
823.027	107.629
823.155	107.031
823.283	105.680
823.412	109.175
823.540	108.206
823.668	107.536
823.796	106.784
823.924	108.546
824.052	106.165
824.180	106.206
824.308	107.320
824.437	106.412
824.565	106.392
824.693	106.474
824.821	107.629
824.949	107.412
825.077	105.742
825.205	105.577
825.333	106.175
825.462	105.784
825.590	104.629
825.718	105.567
825.846	106.598
825.974	106.330
826.102	105.515
826.230	105.278
826.358	104.278
826.487	104.660
826.615	105.979
826.743	106.660
826.871	107.113
826.999	106.845
827.127	106.093
827.255	104.412
827.383	104.464
827.512	104.856
827.640	106.897
827.768	105.495
827.896	104.804
828.024	104.856
828.152	104.278
828.280	105.485
828.408	106.052
828.537	104.722
828.665	104.330
828.793	103.948
828.921	105.866
829.049	105.464
829.177	104.649
829.305	104.289
829.433	103.711
829.562	102.206
829.690	105.773
829.818	105.691
829.946	103.392
830.074	104.196
830.202	104.443
830.330	103.608
830.458	104.144
830.587	104.309
830.715	104.814
830.843	103.206
830.971	104.010
831.099	103.794
831.227	103.629
831.355	104.072
831.483	104.876
831.612	104.938
831.740	104.371
831.868	104.588
831.996	104.402
832.124	103.814
832.252	102.598
832.380	103.649
832.508	102.691
832.637	102.928
832.765	102.732
832.893	103.629
833.021	103.670
833.149	103.670
833.277	104.289
833.405	103.887
833.533	102.072
833.662	103.918
833.790	102.567
833.918	103.546
834.046	102.835
834.174	103.856
834.302	103.247
834.430	101.918
834.558	102.701
834.687	102.670
834.815	102.340
834.943	102.794
835.071	102.856
835.199	101.938
835.327	102.505
835.455	102.979
835.583	103.144
835.712	102.289
835.840	103.299
835.968	102.155
836.096	102.485
836.224	102.990
836.352	102.763
836.480	102.990
836.608	102.392
836.737	103.845
836.865	102.258
836.993	102.990
837.121	101.649
837.249	102.041
837.377	101.536
837.505	102.361
837.633	102.010
837.762	101.206
837.890	100.773
838.018	101.938
838.146	103.041
838.274	101.206
838.402	101.155
838.530	102.680
838.658	101.928
838.787	102.454
838.915	102.052
839.043	101.918
839.171	101.361
839.299	101.619
839.427	102.289
839.555	103.464
839.683	103.124
839.812	101.660
839.940	102.196
840.068	102.206
840.196	102.021
840.324	101.918
840.452	101.649
840.580	101.093
840.708	100.701
840.837	101.103
840.965	102.093
841.093	101.577
841.221	102.577
841.349	102.082
841.477	102.082
841.605	101.196
841.733	100.464
841.862	104.340
841.990	101.990
842.118	101.000
842.246	100.835
842.374	102.216
842.502	100.907
842.630	101.680
842.758	101.526
842.887	101.278
843.015	101.320
843.143	101.423
843.271	101.577
843.399	102.639
843.527	99.928
843.655	101.309
843.783	100.619
843.912	102.082
844.040	101.866
844.168	102.186
844.296	101.866
844.424	101.103
844.552	101.361
844.680	100.763
844.808	101.835
844.937	101.536
845.065	99.969
845.193	99.763
845.321	100.732
845.449	101.866
845.577	100.753
845.705	100.474
845.833	102.753
845.962	100.907
846.090	100.402
846.218	100.495
846.346	102.103
846.474	99.289
846.602	100.742
846.730	101.412
846.858	99.907
846.987	99.299
847.115	100.639
847.243	101.309
847.371	101.979
847.499	100.082
847.627	100.093
847.755	99.423
847.883	99.278
848.012	100.216
848.140	99.433
848.268	99.825
848.396	99.773
848.524	102.784
848.652	101.567
848.780	101.052
848.908	101.526
849.037	101.000
849.165	99.928
849.293	100.464
849.421	100.505
849.549	101.000
849.677	100.464
849.805	100.856
849.933	100.835
850.062	101.237
850.190	100.031
850.318	100.423
850.446	101.402
850.574	99.876
850.702	100.577
850.830	99.948
850.958	100.814
851.087	101.299
851.215	101.206
851.343	100.289
851.471	100.134
851.599	99.814
851.727	99.907
851.855	100.072
851.983	100.433
852.112	99.082
852.240	100.701
852.368	100.722
852.496	99.010
852.624	99.577
852.752	98.227
852.880	100.289
853.008	100.330
853.137	101.103
853.265	100.340
853.393	100.144
853.521	99.959
853.649	99.928
853.777	99.990
853.905	99.804
854.033	99.825
854.162	99.165
854.290	98.351
854.418	98.959
854.546	99.691
854.674	100.546
854.802	99.557
854.930	99.887
855.058	100.598
855.187	101.330
855.315	99.443
855.443	99.299
855.571	100.588
855.699	100.371
855.827	100.227
855.955	99.443
856.083	100.052
856.212	99.526
856.340	100.763
856.468	99.505
856.596	100.763
856.724	99.227
856.852	99.876
856.980	99.742
857.108	99.340
857.237	99.340
857.365	99.278
857.493	99.784
857.621	99.103
857.749	98.474
857.877	98.237
858.005	99.474
858.133	98.268
858.262	99.938
858.390	100.588
858.518	98.928
858.646	98.948
858.774	100.412
858.902	100.093
859.030	99.598
859.158	100.041
859.287	98.196
859.415	98.691
859.543	98.660
859.671	100.062
859.799	100.330
859.927	99.722
860.055	101.093
860.183	99.825
860.312	99.753
860.440	99.876
860.568	100.278
860.696	99.371
860.824	99.866
860.952	98.825
861.080	98.680
861.208	99.082
861.337	99.361
861.465	99.577
861.593	100.691
861.721	99.804
861.849	99.113
861.977	98.340
862.105	99.588
862.233	99.196
862.362	99.835
862.490	100.041
862.618	100.165
862.746	99.856
862.874	101.175
863.002	100.041
863.130	99.753
863.258	100.804
863.387	98.866
863.515	101.351
863.643	99.701
863.771	99.278
863.899	99.701
864.027	100.031
864.155	100.206
864.283	97.577
864.412	100.371
864.540	100.711
864.668	99.443
864.796	100.371
864.924	100.567
865.052	99.423
865.180	100.381
865.308	99.629
865.437	99.381
865.565	99.794
865.693	99.402
865.821	99.052
865.949	100.794
866.077	101.113
866.205	98.938
866.333	99.371
866.462	97.979
866.590	99.784
866.718	100.670
866.846	100.907
866.974	100.186
867.102	99.464
867.230	98.433
867.358	98.649
867.487	99.536
867.615	99.701
867.743	99.371
867.871	100.299
867.999	100.330
868.127	99.835
868.255	100.897
868.383	100.979
868.512	100.701
868.640	100.845
868.768	99.660
868.896	98.577
869.024	99.134
869.152	100.258
869.280	100.505
869.408	100.938
869.537	99.351
869.665	100.309
869.793	98.485
869.921	98.948
870.049	100.144
870.177	100.247
870.305	101.876
870.433	101.557
870.562	99.742
870.690	99.247
870.818	100.536
870.946	99.773
871.074	99.649
871.202	99.938
871.330	99.423
871.458	100.433
871.587	100.381
871.715	99.186
871.843	100.072
871.971	99.371
872.099	98.825
872.227	99.381
872.355	98.701
872.483	98.670
872.612	101.000
872.740	98.649
872.868	99.526
872.996	99.361
873.124	99.897
873.252	100.289
873.380	100.649
873.508	100.691
873.637	99.113
873.765	98.691
873.893	100.495
874.021	100.732
874.149	100.155
874.277	99.979
874.405	99.577
874.533	99.680
874.662	98.959
874.790	98.505
874.918	99.907
875.046	99.072
875.174	99.072
875.302	99.072
875.430	99.330
875.558	97.505
875.687	99.629
875.815	101.010
875.943	99.206
876.071	100.000
876.199	101.010
876.327	99.515
876.455	99.701
876.583	100.000
876.712	100.371
876.840	99.196
876.968	98.856
877.096	99.773
877.224	99.289
877.352	97.897
877.480	100.082
877.608	100.835
877.737	99.423
877.865	98.371
877.993	99.093
878.121	100.918
878.249	101.186
878.377	99.608
878.505	99.237
878.633	100.680
878.762	100.412
878.890	100.392
879.018	100.711
879.146	99.835
879.274	99.691
879.402	101.165
879.530	99.474
879.658	100.639
879.787	99.196
879.915	100.113
880.043	98.351
880.171	98.897
880.299	99.639
880.427	99.474
880.555	99.577
880.683	98.784
880.812	99.330
880.940	99.186
881.068	100.186
881.196	99.804
881.324	100.392
881.452	100.763
881.580	98.825
881.708	100.299
881.837	100.608
881.965	99.289
882.093	99.371
882.221	100.351
882.349	98.361
882.477	100.155
882.605	100.515
882.733	100.536
882.862	100.722
882.990	100.804
883.118	101.722
883.246	101.320
883.374	100.309
883.502	99.299
883.630	101.381
883.758	99.629
883.887	99.711
884.015	99.505
884.143	101.206
884.271	99.588
884.399	98.990
884.527	100.371
884.655	100.546
884.783	101.082
884.912	100.598
885.040	100.124
885.168	99.103
885.296	99.330
885.424	98.814
885.552	100.175
885.680	98.887
885.808	100.464
885.937	102.052
886.065	99.247
886.193	99.495
886.321	100.474
886.449	100.670
886.577	100.093
886.705	100.175
886.833	100.000
886.962	100.052
887.090	99.773
887.218	99.907
887.346	99.371
887.474	101.443
887.602	100.330
887.730	99.505
887.858	99.897
887.987	99.454
888.115	99.464
888.243	100.412
888.371	100.320
888.499	100.866
888.627	98.866
888.755	99.165
888.883	100.093
889.012	99.443
889.140	99.299
889.268	99.928
889.396	100.351
889.524	99.639
889.652	99.536
889.780	100.041
889.908	99.794
890.037	99.866
890.165	98.928
890.293	99.784
890.421	100.093
890.549	100.268
890.677	98.990
890.805	100.340
890.933	100.134
891.062	98.887
891.190	99.443
891.318	100.804
891.446	100.000
891.574	99.588
891.702	98.835
891.830	99.814
891.958	100.464
892.087	100.660
892.215	100.567
892.343	100.361
892.471	100.134
892.599	100.072
892.727	101.619
892.855	99.990
892.983	100.557
893.112	100.629
893.240	100.258
893.368	100.990
893.496	100.598
893.624	100.887
893.752	100.165
893.880	99.031
894.008	100.124
894.137	100.897
894.265	100.320
894.393	100.412
894.521	99.722
894.649	100.031
894.777	100.423
894.905	99.216
895.033	100.804
895.162	101.186
895.290	100.412
895.418	101.216
895.546	100.794
895.674	99.113
895.802	99.258
895.930	100.052
896.058	100.052
896.187	100.031
896.315	100.412
896.443	99.299
896.571	99.969
896.699	100.804
896.827	100.557
896.955	99.608
897.083	101.196
897.212	102.629
897.340	100.392
897.468	99.938
897.596	100.753
897.724	99.887
897.852	100.268
897.980	100.124
898.108	99.196
898.237	99.649
898.365	99.464
898.493	100.546
898.621	99.825
898.749	98.082
898.877	98.866
899.005	99.567
899.133	100.588
899.262	100.536
899.390	99.464
899.518	99.825
899.646	100.113
899.774	101.351
899.902	100.206
900.030	100.722
900.158	99.443
900.287	100.000
900.415	99.773
900.543	99.959
900.671	101.711
900.799	100.773
900.927	100.402
901.055	99.227
901.183	100.485
901.312	101.247
901.440	101.536
901.568	101.000
901.696	100.938
901.824	100.856
901.952	101.742
902.080	99.753
902.208	99.959
902.337	100.701
902.465	100.247
902.593	101.052
902.721	100.505
902.849	100.866
902.977	100.742
903.105	100.732
903.233	101.588
903.362	101.495
903.490	99.722
903.618	101.196
903.746	100.340
903.874	101.010
904.002	101.588
904.130	100.691
904.258	99.732
904.387	100.340
904.515	99.701
904.643	101.031
904.771	100.670
904.899	99.227
905.027	99.351
905.155	98.577
905.283	99.351
905.412	99.670
905.540	99.670
905.668	98.938
905.796	98.299
905.924	100.206
906.052	99.990
906.180	100.289
906.308	98.979
906.437	97.825
906.565	100.619
906.693	99.165
906.821	98.629
906.949	99.309
907.077	99.402
907.205	101.856
907.333	99.876
907.462	101.485
907.590	101.577
907.718	100.186
907.846	99.546
907.974	101.948
908.102	100.670
908.230	99.402
908.358	98.742
908.487	98.856
908.615	100.206
908.743	100.155
908.871	101.206
908.999	99.412
909.127	100.876
909.255	99.814
909.383	99.402
909.512	101.010
909.640	101.505
909.768	101.278
909.896	101.000
910.024	99.928
910.152	100.320
910.280	99.608
910.408	101.216
910.537	101.773
910.665	100.557
910.793	100.495
910.921	99.474
911.049	99.969
911.177	99.021
911.305	100.866
911.433	101.165
911.562	101.134
911.690	101.474
911.818	101.454
911.946	100.526
912.074	101.113
912.202	100.588
912.330	100.825
912.458	101.186
912.587	100.165
912.715	101.031
912.843	100.876
912.971	100.856
913.099	100.557
913.227	102.206
913.355	100.804
913.483	101.103
913.612	101.186
913.740	100.876
913.868	100.052
