Ref_Stop_0_Pol_at_750.00nm_cut_at_1179.00Y_01.dat
03.07.2023
11:36:33
cut middle at Y: 1179.00
top cursor: 1231 down cursor: 1127 mean of: 104 lines , 2560 datapoints
wavelength(nm)	intensity[arb. units]
585.996	9144.615
586.124	8945.692
586.252	8929.106
586.380	8946.500
586.508	8992.942
586.637	9065.192
586.765	9003.692
586.893	9049.212
587.021	9127.875
587.149	9064.029
587.277	9104.327
587.405	9129.644
587.533	9165.202
587.662	9210.846
587.790	9162.192
587.918	9170.452
588.046	9137.837
588.174	9170.740
588.302	9159.606
588.430	9154.365
588.558	9183.067
588.687	9219.827
588.815	9183.817
588.943	9174.827
589.071	9159.337
589.199	9147.702
589.327	9175.923
589.455	9224.702
589.583	9184.240
589.712	9176.663
589.840	9143.712
589.968	9128.567
590.096	9172.385
590.224	9156.413
590.352	9206.663
590.480	9147.308
590.608	9142.442
590.737	9153.096
590.865	9245.981
590.993	9069.644
591.121	9136.510
591.249	9085.567
591.377	9099.096
591.505	9203.625
591.633	9118.788
591.762	9135.202
591.890	9130.538
592.018	9248.144
592.146	9180.087
592.274	9131.269
592.402	9111.038
592.530	9310.885
592.658	9264.106
592.787	9209.596
592.915	9261.490
593.043	9161.769
593.171	9233.519
593.299	9209.346
593.427	9207.529
593.555	9233.740
593.683	9254.683
593.812	9249.067
593.940	9254.760
594.068	9269.721
594.196	9253.625
594.324	9275.433
594.452	9506.875
594.580	9382.750
594.708	9372.298
594.837	9396.202
594.965	9469.894
595.093	9408.644
595.221	9474.490
595.349	9457.587
595.477	9484.260
595.605	9505.375
595.733	9517.490
595.862	9530.981
595.990	9558.577
596.118	9588.298
596.246	9623.923
596.374	9590.731
596.502	9593.635
596.630	9596.115
596.758	9604.615
596.887	9577.087
597.015	9564.192
597.143	9595.058
597.271	9639.635
597.399	9666.606
597.527	9628.846
597.655	9646.808
597.783	9650.913
597.912	9656.356
598.040	9696.865
598.168	9636.606
598.296	9607.481
598.424	9801.202
598.552	9647.317
598.680	9691.587
598.808	9717.529
598.937	9662.106
599.065	9678.952
599.193	9677.260
599.321	9692.750
599.449	9631.654
599.577	9639.413
599.705	9664.990
599.833	9640.577
599.962	9624.558
600.090	9629.308
600.218	9625.231
600.346	9613.837
600.474	9598.865
600.602	9588.538
600.730	9597.250
600.858	9592.760
600.987	9639.096
601.115	9598.510
601.243	9658.856
601.371	9703.885
601.499	9694.423
601.627	9649.712
601.755	9659.019
601.883	9677.192
602.012	9600.673
602.140	9677.375
602.268	9663.538
602.396	9795.413
602.524	9660.394
602.652	9743.115
602.780	9741.346
602.908	9762.365
603.037	9807.558
603.165	9786.654
603.293	9814.615
603.421	9813.750
603.549	9846.192
603.677	9896.106
603.805	9880.548
603.933	9912.442
604.062	9968.519
604.190	10044.654
604.318	10028.404
604.446	9961.385
604.574	10078.750
604.702	10084.587
604.830	10070.548
604.958	10086.663
605.087	10138.760
605.215	10184.837
605.343	10282.106
605.471	10222.817
605.599	10252.558
605.727	10359.962
605.855	10307.394
605.983	10344.519
606.112	10387.538
606.240	10369.202
606.368	10373.048
606.496	10351.471
606.624	10460.904
606.752	10379.298
606.880	10443.038
607.008	10402.981
607.137	10427.288
607.265	10513.865
607.393	10451.971
607.521	10547.240
607.649	10442.346
607.777	10462.365
607.905	10502.490
608.033	10411.702
608.162	10466.500
608.290	10445.712
608.418	10550.183
608.546	10534.433
608.674	10523.471
608.802	10452.183
608.930	10470.952
609.058	10406.952
609.187	10443.990
609.315	10408.692
609.443	10380.346
609.571	10525.144
609.699	10379.481
609.827	10468.827
609.955	10400.837
610.083	10341.144
610.212	10373.904
610.340	10321.192
610.468	10335.875
610.596	10347.654
610.724	10306.683
610.852	10379.471
610.980	10363.952
611.108	10275.865
611.237	10305.135
611.365	10307.587
611.493	10289.125
611.621	10280.846
611.749	10290.038
611.877	10359.433
612.005	10310.115
612.133	10307.173
612.262	10347.462
612.390	10376.721
612.518	10401.712
612.646	10347.827
612.774	10420.240
612.902	10451.510
613.030	10403.000
613.158	10391.750
613.287	10460.288
613.415	10357.433
613.543	10402.673
613.671	10457.288
613.799	10452.221
613.927	10464.250
614.055	10477.740
614.183	10503.615
614.312	10471.529
614.440	10601.856
614.568	10568.327
614.696	10602.279
614.824	10536.894
614.952	10646.846
615.080	10597.596
615.208	10664.308
615.337	10775.875
615.465	10662.510
615.593	10745.019
615.721	10708.356
615.849	10819.577
615.977	10755.837
616.105	10792.375
616.233	10771.279
616.362	10851.000
616.490	10842.269
616.618	10872.183
616.746	10990.029
616.874	10934.365
617.002	10940.058
617.130	10961.308
617.258	10887.856
617.387	10926.885
617.515	10966.385
617.643	10917.413
617.771	11023.163
617.899	10949.692
618.027	11021.192
618.155	11033.558
618.283	11024.587
618.412	11040.567
618.540	11081.365
618.668	11038.596
618.796	11051.548
618.924	10984.144
619.052	11045.000
619.180	10990.404
619.308	10992.173
619.437	11014.106
619.565	11002.635
619.693	10983.548
619.821	10994.231
619.949	10931.192
620.077	11031.250
620.205	11005.154
620.333	11014.856
620.462	10923.538
620.590	10998.010
620.718	10999.260
620.846	11001.779
620.974	10999.337
621.102	11036.346
621.230	10991.115
621.358	11118.212
621.487	10952.135
621.615	10978.712
621.743	10896.077
621.871	10991.144
621.999	10874.673
622.127	10912.038
622.255	10876.500
622.383	10879.933
622.512	10864.644
622.640	10859.240
622.768	10895.625
622.896	10974.000
623.024	10908.115
623.152	10832.394
623.280	10955.990
623.408	10848.990
623.537	10868.558
623.665	10815.538
623.793	10895.827
623.921	10860.433
624.049	10828.962
624.177	10807.202
624.305	10804.423
624.433	10820.962
624.562	10826.337
624.690	10945.038
624.818	10738.365
624.946	10770.067
625.074	10705.125
625.202	10746.702
625.330	10755.769
625.458	10877.404
625.587	10728.779
625.715	10795.394
625.843	10764.635
625.971	10750.798
626.099	10766.500
626.227	10715.990
626.355	10686.010
626.483	10800.654
626.612	10694.423
626.740	10756.971
626.868	10719.750
626.996	10753.337
627.124	10717.125
627.252	10667.250
627.380	10689.385
627.508	10682.481
627.637	10710.365
627.765	10746.981
627.893	10771.625
628.021	10832.567
628.149	10710.433
628.277	10781.096
628.405	10751.827
628.533	10774.740
628.662	10768.317
628.790	10841.385
628.918	10783.173
629.046	10900.106
629.174	10748.971
629.302	10823.067
629.430	10740.240
629.558	10818.587
629.687	10780.760
629.815	10847.740
629.943	10942.625
630.071	10859.058
630.199	10833.721
630.327	10909.029
630.455	10888.375
630.583	10901.471
630.712	10907.981
630.840	10951.221
630.968	10919.587
631.096	10913.125
631.224	10940.769
631.352	11073.856
631.480	10962.394
631.608	11121.798
631.737	10936.067
631.865	11072.394
631.993	11039.721
632.121	11156.183
632.249	11012.327
632.377	11005.442
632.505	10995.298
632.633	10999.481
632.762	10981.019
632.890	10970.231
633.018	11005.481
633.146	10974.702
633.274	10948.702
633.402	11002.519
633.530	10958.452
633.658	10916.096
633.787	10947.731
633.915	10910.519
634.043	10920.971
634.171	10954.144
634.299	10917.423
634.427	10896.529
634.555	11142.971
634.683	10898.298
634.812	10912.683
634.940	10824.260
635.068	10854.077
635.196	10825.019
635.324	10826.865
635.452	10784.442
635.580	10909.067
635.708	10769.962
635.837	10775.202
635.965	10754.971
636.093	10730.106
636.221	10700.837
636.349	10651.962
636.477	10676.365
636.605	10664.692
636.733	10634.471
636.862	10626.625
636.990	10634.413
637.118	10616.779
637.246	10548.327
637.374	10667.288
637.502	10512.260
637.630	10471.481
637.758	10476.952
637.887	10430.308
638.015	10534.173
638.143	10512.010
638.271	10403.567
638.399	10431.663
638.527	10342.462
638.655	10358.721
638.783	10335.192
638.912	10395.510
639.040	10303.183
639.168	10280.885
639.296	10234.577
639.424	10318.721
639.552	10234.413
639.680	10267.702
639.808	10234.942
639.937	10212.606
640.065	10166.913
640.193	10173.058
640.321	10256.529
640.449	10222.231
640.577	10141.837
640.705	10132.904
640.833	10144.058
640.962	10212.135
641.090	10072.933
641.218	10079.202
641.346	10204.721
641.474	10102.423
641.602	10077.327
641.730	10061.635
641.858	10034.577
641.987	10032.971
642.115	10216.298
642.243	10057.135
642.371	10207.894
642.499	10049.096
642.627	10099.538
642.755	10003.490
642.883	10032.577
643.012	10020.942
643.140	10054.731
643.268	10049.702
643.396	9966.442
643.524	9992.385
643.652	10093.260
643.780	9972.260
643.908	9972.913
644.037	10085.481
644.165	10056.894
644.293	10119.106
644.421	9923.817
644.549	9963.567
644.677	10026.538
644.805	9925.856
644.933	9913.817
645.062	9912.058
645.190	10066.106
645.318	9959.077
645.446	9876.625
645.574	9860.000
645.702	9899.404
645.830	9901.115
645.958	9846.904
646.087	9814.337
646.215	9778.087
646.343	9771.962
646.471	9980.808
646.599	9782.365
646.727	9769.567
646.855	9808.923
646.983	9760.683
647.112	9833.202
647.240	9729.635
647.368	9796.654
647.496	9753.769
647.624	9731.885
647.752	9719.740
647.880	9674.144
648.008	9684.087
648.137	9725.462
648.265	9642.087
648.393	9726.413
648.521	9634.154
648.649	9732.404
648.777	9642.875
648.905	9604.769
649.033	9670.288
649.162	9544.452
649.290	9482.913
649.418	9482.846
649.546	9606.779
649.674	9485.788
649.802	9439.490
649.930	9385.875
650.058	9367.423
650.187	9414.615
650.315	9355.721
650.443	9343.067
650.571	9278.298
650.699	9263.029
650.827	9273.163
650.955	9223.010
651.083	9298.154
651.212	9168.721
651.340	9228.346
651.468	9132.952
651.596	9157.567
651.724	9119.606
651.852	9080.096
651.980	9113.462
652.108	9076.644
652.237	9083.346
652.365	9030.250
652.493	9017.240
652.621	8972.231
652.749	8983.500
652.877	8975.212
653.005	8997.769
653.133	8913.163
653.262	8897.760
653.390	8913.510
653.518	9008.019
653.646	8827.192
653.774	8825.558
653.902	8906.048
654.030	8865.000
654.158	8786.760
654.287	8823.106
654.415	8802.385
654.543	8835.529
654.671	8742.923
654.799	8755.635
654.927	8722.625
655.055	8666.221
655.183	8680.173
655.312	8671.404
655.440	8624.885
655.568	8626.288
655.696	8670.654
655.824	8623.913
655.952	8592.692
656.080	8542.952
656.208	8554.962
656.337	8586.875
656.465	8721.510
656.593	8516.125
656.721	8563.625
656.849	8612.077
656.977	8407.875
657.105	8472.413
657.233	8469.683
657.362	8527.423
657.490	8450.692
657.618	8423.019
657.746	8397.750
657.874	8321.654
658.002	8273.490
658.130	8265.596
658.258	8267.183
658.387	8187.135
658.515	8222.260
658.643	8200.019
658.771	8235.721
658.899	8143.990
659.027	8167.346
659.155	8129.317
659.283	8073.317
659.412	8092.760
659.540	8099.510
659.668	8128.029
659.796	8156.462
659.924	8121.288
660.052	8171.192
660.180	8103.337
660.308	8144.615
660.437	8113.712
660.565	8057.240
660.693	7956.827
660.821	8156.087
660.949	7986.442
661.077	8004.635
661.205	8117.519
661.333	7968.279
661.462	7883.087
661.590	8003.673
661.718	7922.817
661.846	7900.788
661.974	7858.606
662.102	7877.038
662.230	7880.250
662.358	7739.413
662.487	7820.846
662.615	7791.952
662.743	7809.538
662.871	7761.942
662.999	7681.212
663.127	7694.606
663.255	7699.837
663.383	7834.394
663.512	7645.250
663.640	7681.519
663.768	7723.019
663.896	7610.913
664.024	7642.981
664.152	7610.990
664.280	7660.365
664.408	7561.327
664.537	7559.625
664.665	7545.500
664.793	7556.538
664.921	7527.029
665.049	7573.087
665.177	7480.308
665.305	7487.971
665.433	7491.231
665.562	7631.048
665.690	7498.587
665.818	7616.452
665.946	7391.221
666.074	7406.923
666.202	7395.125
666.330	7336.087
666.458	7779.192
666.587	7346.192
666.715	7317.442
666.843	7294.298
666.971	7306.962
667.099	7333.154
667.227	7373.423
667.355	7342.308
667.483	7258.173
667.612	7283.971
667.740	7241.202
667.868	7197.404
667.996	7193.798
668.124	7243.519
668.252	7293.510
668.380	7145.221
668.508	7176.692
668.637	7156.740
668.765	7164.240
668.893	7129.490
669.021	7042.510
669.149	7114.308
669.277	7027.202
669.405	7130.433
669.533	7092.798
669.662	7014.048
669.790	6985.712
669.918	7014.471
670.046	7129.279
670.174	6894.990
670.302	6906.856
670.430	6872.288
670.558	6951.423
670.687	7055.856
670.815	6863.058
670.943	6902.731
671.071	6786.558
671.199	6754.221
671.327	6790.096
671.455	6781.500
671.583	6755.769
671.712	6723.250
671.840	6771.202
671.968	6876.385
672.096	6865.702
672.224	6629.827
672.352	6629.971
672.480	6581.567
672.608	6653.231
672.737	6582.423
672.865	6533.173
672.993	6548.154
673.121	6536.894
673.249	6521.846
673.377	6453.375
673.505	6444.510
673.633	6506.846
673.762	6402.240
673.890	6458.740
674.018	6441.260
674.146	6402.587
674.274	6387.269
674.402	6430.635
674.530	6349.952
674.658	6325.375
674.787	6324.471
674.915	6421.702
675.043	6295.817
675.171	6292.875
675.299	6236.192
675.427	6211.904
675.555	6186.288
675.683	6210.558
675.812	6162.548
675.940	6142.885
676.068	6114.760
676.196	6150.058
676.324	6073.481
676.452	6032.856
676.580	6028.817
676.708	6023.365
676.837	5990.625
676.965	6090.240
677.093	6130.154
677.221	5982.106
677.349	5925.423
677.477	6011.750
677.605	5880.462
677.733	5910.077
677.862	5909.202
677.990	5867.587
678.118	5950.058
678.246	5838.962
678.374	5901.067
678.502	5817.971
678.630	5768.356
678.758	5783.106
678.887	5902.058
679.015	5698.702
679.143	5677.404
679.271	5684.654
679.399	5659.356
679.527	5677.038
679.655	5724.067
679.783	5613.144
679.912	5589.625
680.040	5782.856
680.168	5586.212
680.296	5596.471
680.424	5536.404
680.552	5556.538
680.680	5526.654
680.808	5513.913
680.937	5464.692
681.065	5522.577
681.193	5446.163
681.321	5411.298
681.449	5476.654
681.577	5423.433
681.705	5385.856
681.833	5430.663
681.962	5385.769
682.090	5338.827
682.218	5381.029
682.346	5346.779
682.474	5304.452
682.602	5318.337
682.730	5385.548
682.858	5259.029
682.987	5276.548
683.115	5298.087
683.243	5244.663
683.371	5240.923
683.499	5213.740
683.627	5260.760
683.755	5198.692
683.883	5172.067
684.012	5183.654
684.140	5133.538
684.268	5137.115
684.396	5214.865
684.524	5116.721
684.652	5121.260
684.780	5132.356
684.908	5128.538
685.037	5121.817
685.165	5082.788
685.293	5141.529
685.421	5077.481
685.549	5057.587
685.677	4981.596
685.805	5070.279
685.933	5006.519
686.062	5006.183
686.190	4974.250
686.318	4964.548
686.446	4916.279
686.574	4887.154
686.702	4965.154
686.830	4892.279
686.958	4966.635
687.087	4841.654
687.215	4858.615
687.343	4861.558
687.471	4991.779
687.599	4764.231
687.727	4802.327
687.855	4772.135
687.983	4735.817
688.112	4804.462
688.240	4748.952
688.368	4752.510
688.496	4697.933
688.624	4678.183
688.752	4833.558
688.880	4667.135
689.008	4659.702
689.137	4653.404
689.265	4614.827
689.393	4598.500
689.521	4607.856
689.649	4692.048
689.777	4613.337
689.905	4654.029
690.033	4539.308
690.162	4525.798
690.290	4572.356
690.418	4507.875
690.546	4535.385
690.674	4537.837
690.802	4532.779
690.930	4487.529
691.058	4475.519
691.187	4419.875
691.315	4403.029
691.443	4419.481
691.571	4433.308
691.699	4354.683
691.827	4376.202
691.955	4340.683
692.083	4343.288
692.212	4337.154
692.340	4337.135
692.468	4361.279
692.596	4344.423
692.724	4273.163
692.852	4298.231
692.980	4301.404
693.108	4332.644
693.237	4240.327
693.365	4222.077
693.493	4218.548
693.621	4218.519
693.749	4174.760
693.877	4218.221
694.005	4137.971
694.133	4129.067
694.262	4208.519
694.390	4078.971
694.518	4101.587
694.646	4083.115
694.774	4047.827
694.902	4037.625
695.030	4030.337
695.158	4030.981
695.287	4006.212
695.415	4004.087
695.543	3983.856
695.671	3937.106
695.799	4040.798
695.927	3949.913
696.055	3954.885
696.183	3888.067
696.312	4067.577
696.440	3925.721
696.568	3919.058
696.696	3832.837
696.824	3812.115
696.952	3793.308
697.080	3818.019
697.208	3776.952
697.337	3781.115
697.465	3769.933
697.593	3721.760
697.721	3821.923
697.849	3690.615
697.977	3729.317
698.105	3757.942
698.233	3701.192
698.362	3645.327
698.490	3774.288
698.618	3620.837
698.746	3602.885
698.874	3682.798
699.002	3623.010
699.130	3631.587
699.258	3592.413
699.387	3528.837
699.515	3569.337
699.643	3572.856
699.771	3634.596
699.899	3513.106
700.027	3473.240
700.155	3532.394
700.283	3419.981
700.412	3434.058
700.540	3463.962
700.668	3524.644
700.796	3406.769
700.924	3420.769
701.052	3444.077
701.180	3442.817
701.308	3354.192
701.437	3318.125
701.565	3326.837
701.693	3374.010
701.821	3551.067
701.949	3282.731
702.077	3287.644
702.205	3381.356
702.333	3293.433
702.462	3248.048
702.590	3317.385
702.718	3208.510
702.846	3401.365
702.974	3174.894
703.102	3194.721
703.230	3217.683
703.358	3160.625
703.487	3169.606
703.615	3143.587
703.743	3142.183
703.871	3119.827
703.999	3111.327
704.127	3095.365
704.255	3062.683
704.383	3092.192
704.512	3146.894
704.640	3093.337
704.768	3155.971
704.896	3047.654
705.024	2961.298
705.152	3007.144
705.280	3051.269
705.408	2960.240
705.537	2954.115
705.665	2962.529
705.793	2932.942
705.921	2935.115
706.049	2886.712
706.177	2935.923
706.305	2867.250
706.433	2925.452
706.562	2880.433
706.690	2902.000
706.818	2887.538
706.946	2839.144
707.074	2815.365
707.202	2787.221
707.330	2804.154
707.458	2779.635
707.587	2752.952
707.715	2794.288
707.843	2782.279
707.971	2783.606
708.099	2720.308
708.227	2711.346
708.355	2700.933
708.483	2686.817
708.612	2714.904
708.740	2655.779
708.868	2660.452
708.996	2719.077
709.124	2709.923
709.252	2669.702
709.380	2672.019
709.508	2613.856
709.637	2654.038
709.765	2627.038
709.893	2660.798
710.021	2591.365
710.149	2694.798
710.277	2578.125
710.405	2601.663
710.533	2595.231
710.662	2562.712
710.790	2669.702
710.918	2555.221
711.046	2584.385
711.174	2535.038
711.302	2570.971
711.430	2535.337
711.558	2565.875
711.687	2549.250
711.815	2525.337
711.943	2507.904
712.071	2525.740
712.199	2519.779
712.327	2542.625
712.455	2508.462
712.583	2542.096
712.712	2482.750
712.840	2491.683
712.968	2479.471
713.096	2468.654
713.224	2450.260
713.352	2445.615
713.480	2449.933
713.608	2444.058
713.737	2413.231
713.865	2406.750
713.993	2423.385
714.121	2394.019
714.249	2406.394
714.377	2395.038
714.505	2396.385
714.633	2373.423
714.762	2352.413
714.890	2368.990
715.018	2342.250
715.146	2347.615
715.274	2329.067
715.402	2325.490
715.530	2295.962
715.658	2290.202
715.787	2289.038
715.915	2300.269
716.043	2303.923
716.171	2257.048
716.299	2235.942
716.427	2264.952
716.555	2245.000
716.683	2247.904
716.812	2230.740
716.940	2237.635
717.068	2225.971
717.196	2210.827
717.324	2213.269
717.452	2193.837
717.580	2210.769
717.708	2165.635
717.837	2166.413
717.965	2143.490
718.093	2168.981
718.221	2145.769
718.349	2147.750
718.477	2145.481
718.605	2140.606
718.733	2123.250
718.862	2124.644
718.990	2126.894
719.118	2128.423
719.246	2092.837
719.374	2083.654
719.502	2087.577
719.630	2083.010
719.758	2051.346
719.887	2062.029
720.015	2046.683
720.143	2053.885
720.271	2023.413
720.399	2040.519
720.527	2021.490
720.655	2020.837
720.783	2007.529
720.912	1994.740
721.040	1977.788
721.168	1998.462
721.296	1950.817
721.424	1972.317
721.552	1955.481
721.680	1940.923
721.808	1954.654
721.937	1949.721
722.065	1937.769
722.193	1931.808
722.321	1918.712
722.449	1914.923
722.577	1892.260
722.705	1892.462
722.833	1882.692
722.962	1875.462
723.090	1856.981
723.218	1840.260
723.346	1851.375
723.474	1838.962
723.602	1825.587
723.730	1820.308
723.858	1826.365
723.987	1837.058
724.115	1829.096
724.243	1826.183
724.371	1783.288
724.499	1811.490
724.627	1786.740
724.755	1789.481
724.883	1782.875
725.012	1793.279
725.140	1772.750
725.268	1754.654
725.396	1728.038
725.524	1740.740
725.652	1734.375
725.780	1730.115
725.908	1721.856
726.037	1689.096
726.165	1709.394
726.293	1695.798
726.421	1689.048
726.549	1681.337
726.677	1672.135
726.805	1661.048
726.933	1662.010
727.062	1663.962
727.190	1641.212
727.318	1636.856
727.446	1642.077
727.574	1620.923
727.702	1607.885
727.830	1619.442
727.958	1615.115
728.087	1612.077
728.215	1595.990
728.343	1593.962
728.471	1583.462
728.599	1576.433
728.727	1569.404
728.855	1575.231
728.983	1559.712
729.112	1551.817
729.240	1546.548
729.368	1542.058
729.496	1535.452
729.624	1537.346
729.752	1534.298
729.880	1527.990
730.008	1526.692
730.137	1499.923
730.265	1508.577
730.393	1511.404
730.521	1478.385
730.649	1480.346
730.777	1486.827
730.905	1482.606
731.033	1455.413
731.162	1457.356
731.290	1464.135
731.418	1460.644
731.546	1442.577
731.674	1448.875
731.802	1435.077
731.930	1439.423
732.058	1412.221
732.187	1427.375
732.315	1426.250
732.443	1411.548
732.571	1407.635
732.699	1403.817
732.827	1414.740
732.955	1408.721
733.083	1371.923
733.212	1393.106
733.340	1398.837
733.468	1386.308
733.596	1359.952
733.724	1355.413
733.852	1363.817
733.980	1347.558
734.108	1366.942
734.237	1359.683
734.365	1358.356
734.493	1335.413
734.621	1341.952
734.749	1350.865
734.877	1323.827
735.005	1321.856
735.133	1331.760
735.262	1324.510
735.390	1307.337
735.518	1302.500
735.646	1314.635
735.774	1310.808
735.902	1293.952
736.030	1289.817
736.158	1294.337
736.287	1294.856
736.415	1291.971
736.543	1270.673
736.671	1264.413
736.799	1270.154
736.927	1279.663
737.055	1275.529
737.183	1249.144
737.312	1239.317
737.440	1251.385
737.568	1234.423
737.696	1242.183
737.824	1251.010
737.952	1448.740
738.080	1230.548
738.208	1228.731
738.337	1219.904
738.465	1212.913
738.593	1206.125
738.721	1190.750
738.849	1216.654
738.977	1191.904
739.105	1210.183
739.233	1191.587
739.362	1177.856
739.490	1175.231
739.618	1181.904
739.746	1167.798
739.874	1169.788
740.002	1174.192
740.130	1140.913
740.258	1150.625
740.387	1163.404
740.515	1157.240
740.643	1122.731
740.771	1131.885
740.899	1131.615
741.027	1119.625
741.155	1123.144
741.283	1120.606
741.412	1135.913
741.540	1112.183
741.668	1094.346
741.796	1109.702
741.924	1105.567
742.052	1094.442
742.180	1097.721
742.308	1075.048
742.437	1075.212
742.565	1089.769
742.693	1093.442
742.821	1087.817
742.949	1057.212
743.077	1050.606
743.205	1064.567
743.333	1047.269
743.462	1063.163
743.590	1045.587
743.718	1038.971
743.846	1036.510
743.974	1066.106
744.102	1029.500
744.230	1018.500
744.358	1030.375
744.487	1022.981
744.615	1012.010
744.743	1013.587
744.871	1007.144
744.999	1006.077
745.127	1007.548
745.255	988.404
745.383	993.548
745.512	988.087
745.640	980.558
745.768	975.337
745.896	974.788
746.024	977.712
746.152	980.750
746.280	967.327
746.408	962.865
746.537	954.625
746.665	972.692
746.793	951.952
746.921	946.769
747.049	953.029
747.177	946.000
747.305	948.125
747.433	939.269
747.562	935.288
747.690	943.144
747.818	925.654
747.946	929.413
748.074	915.798
748.202	920.279
748.330	912.048
748.458	905.962
748.587	914.452
748.715	913.654
748.843	895.779
748.971	891.721
749.099	902.115
749.227	893.923
749.355	909.846
749.483	874.327
749.612	898.250
749.740	889.635
749.868	875.038
749.996	876.048
750.124	881.433
750.252	865.154
750.380	865.404
750.508	880.048
750.637	857.529
750.765	857.212
750.893	856.481
751.021	849.750
751.149	856.683
751.277	846.058
751.405	839.769
751.533	854.750
751.662	825.779
751.790	824.192
751.918	824.952
752.046	817.904
752.174	817.029
752.302	813.096
752.430	801.702
752.558	803.808
752.687	805.567
752.815	806.913
752.943	797.933
753.071	793.327
753.199	797.519
753.327	817.096
753.455	789.827
753.583	775.173
753.712	768.760
753.840	783.154
753.968	774.048
754.096	783.510
754.224	774.654
754.352	759.529
754.480	774.433
754.608	760.846
754.737	755.288
754.865	764.356
754.993	759.865
755.121	760.865
755.249	743.962
755.377	730.423
755.505	738.750
755.633	737.731
755.762	736.019
755.890	744.904
756.018	734.635
756.146	716.442
756.274	715.769
756.402	716.240
756.530	743.221
756.658	721.337
756.787	710.106
756.915	706.067
757.043	699.587
757.171	706.096
757.299	712.212
757.427	695.317
757.555	698.115
757.683	690.135
757.812	704.173
757.940	687.337
758.068	686.452
758.196	683.885
758.324	682.346
758.452	682.096
758.580	675.779
758.708	673.923
758.837	690.010
758.965	681.846
759.093	670.019
759.221	658.548
759.349	654.019
759.477	650.962
759.605	648.260
759.733	663.106
759.862	641.721
759.990	642.885
760.118	645.529
760.246	647.942
760.374	658.019
760.502	647.635
760.630	627.817
760.758	629.827
760.887	630.019
761.015	628.587
761.143	627.923
761.271	626.298
761.399	619.365
761.527	630.394
761.655	632.317
761.783	607.913
761.912	610.875
762.040	627.000
762.168	604.548
762.296	598.337
762.424	611.029
762.552	608.712
762.680	595.010
762.808	611.260
762.937	605.298
763.065	592.288
763.193	591.288
763.321	583.173
763.449	580.096
763.577	580.923
763.705	596.202
763.833	588.154
763.962	574.827
764.090	577.087
764.218	574.087
764.346	568.019
764.474	570.433
764.602	562.510
764.730	572.048
764.858	566.952
764.987	560.865
765.115	555.760
765.243	546.721
765.371	557.760
765.499	551.548
765.627	546.663
765.755	543.837
765.883	549.471
766.012	547.721
766.140	535.625
766.268	534.365
766.396	542.904
766.524	548.538
766.652	530.548
766.780	531.837
766.908	544.298
767.037	545.808
767.165	528.837
767.293	532.135
767.421	531.087
767.549	517.971
767.677	541.673
767.805	523.317
767.933	524.269
768.062	505.510
768.190	511.356
768.318	514.933
768.446	507.577
768.574	499.663
768.702	507.904
768.830	505.019
768.958	501.346
769.087	511.317
769.215	504.548
769.343	499.865
769.471	508.240
769.599	497.375
769.727	493.394
769.855	478.596
769.983	514.962
770.112	490.856
770.240	478.038
770.368	479.644
770.496	474.365
770.624	483.096
770.752	480.558
770.880	484.481
771.008	470.971
771.137	464.875
771.265	460.923
771.393	457.481
771.521	463.106
771.649	478.577
771.777	496.173
771.905	522.635
772.033	497.442
772.162	451.760
772.290	459.904
772.418	461.125
772.546	458.192
772.674	455.923
772.802	451.327
772.930	457.952
773.058	447.750
773.187	447.317
773.315	436.856
773.443	445.240
773.571	446.212
773.699	437.067
773.827	445.433
773.955	456.038
774.083	441.308
774.212	429.548
774.340	441.529
774.468	432.538
774.596	430.010
774.724	434.067
774.852	433.731
774.980	427.452
775.108	428.337
775.237	418.721
775.365	421.596
775.493	428.010
775.621	413.019
775.749	422.010
775.877	428.433
776.005	424.567
776.133	416.327
776.262	412.462
776.390	416.827
776.518	400.760
776.646	412.654
776.774	405.452
776.902	409.904
777.030	402.519
777.158	407.538
777.287	413.346
777.415	392.673
777.543	406.558
777.671	403.058
777.799	402.404
777.927	399.327
778.055	401.500
778.183	390.750
778.312	392.231
778.440	394.519
778.568	407.298
778.696	397.462
778.824	395.846
778.952	392.798
779.080	394.481
779.208	391.481
779.337	388.029
779.465	393.048
779.593	384.125
779.721	387.067
779.849	386.452
779.977	383.212
780.105	384.769
780.233	381.769
780.362	381.692
780.490	373.413
780.618	380.173
780.746	372.279
780.874	375.269
781.002	373.529
781.130	377.933
781.258	368.221
781.387	377.846
781.515	372.423
781.643	362.250
781.771	367.981
781.899	380.740
782.027	365.490
782.155	366.990
782.283	361.933
782.412	369.923
782.540	372.135
782.668	364.500
782.796	362.356
782.924	376.808
783.052	373.385
783.180	355.817
783.308	356.404
783.437	358.596
783.565	362.644
783.693	357.567
783.821	358.596
783.949	352.837
784.077	351.971
784.205	355.240
784.333	343.519
784.462	352.990
784.590	346.010
784.718	342.019
784.846	348.327
784.974	360.942
785.102	342.221
785.230	343.404
785.358	338.510
785.487	341.279
785.615	340.019
785.743	340.731
785.871	345.510
785.999	347.433
786.127	344.087
786.255	335.048
786.383	338.875
786.512	336.548
786.640	332.808
786.768	328.115
786.896	330.452
787.024	321.817
787.152	327.269
787.280	349.894
787.408	329.942
787.537	337.721
787.665	341.654
787.793	325.750
787.921	326.740
788.049	325.385
788.177	326.269
788.305	319.875
788.433	329.346
788.562	320.952
788.690	316.654
788.818	319.365
788.946	321.375
789.074	311.500
789.202	315.683
789.330	314.115
789.458	326.087
789.587	317.481
789.715	321.327
789.843	323.077
789.971	314.933
790.099	313.375
790.227	311.212
790.355	314.154
790.483	319.808
790.612	310.250
790.740	314.183
790.868	306.029
790.996	320.500
791.124	320.846
791.252	313.875
791.380	302.375
791.508	309.510
791.637	310.596
791.765	295.596
791.893	304.442
792.021	312.404
792.149	294.856
792.277	302.856
792.405	296.529
792.533	310.433
792.662	299.423
792.790	301.173
792.918	309.394
793.046	298.971
793.174	298.433
793.302	298.740
793.430	294.712
793.558	307.048
793.687	299.115
793.815	288.529
793.943	304.298
794.071	290.240
794.199	294.067
794.327	296.163
794.455	302.760
794.583	292.154
794.712	291.865
794.840	290.221
794.968	295.202
795.096	300.327
795.224	282.577
795.352	322.048
795.480	281.740
795.608	281.952
795.737	281.702
795.865	284.942
795.993	287.192
796.121	280.981
796.249	284.500
796.377	281.490
796.505	281.452
796.633	284.683
796.762	280.106
796.890	277.413
797.018	279.654
797.146	283.558
797.274	282.481
797.402	276.519
797.530	274.750
797.658	272.663
797.787	290.346
797.915	284.231
798.043	272.894
798.171	275.010
798.299	267.510
798.427	273.817
798.555	281.365
798.683	271.000
798.812	298.769
798.940	318.990
799.068	300.942
799.196	276.462
799.324	280.423
799.452	262.385
799.580	266.654
799.708	270.721
799.837	264.596
799.965	263.779
800.093	267.192
800.221	258.413
800.349	264.635
800.477	260.625
800.605	262.837
800.733	269.808
800.862	264.962
800.990	259.721
801.118	259.433
801.246	258.356
801.374	264.990
801.502	259.144
801.630	253.798
801.758	259.135
801.887	250.452
802.015	258.519
802.143	247.846
802.271	252.712
802.399	252.567
802.527	246.587
802.655	249.317
802.783	251.567
802.912	247.519
803.040	244.038
803.168	249.538
803.296	251.923
803.424	242.750
803.552	251.760
803.680	250.365
803.808	244.827
803.937	250.404
804.065	246.490
804.193	254.192
804.321	267.000
804.449	260.413
804.577	249.885
804.705	268.221
804.833	244.798
804.962	242.779
805.090	245.423
805.218	240.577
805.346	240.808
805.474	250.519
805.602	247.913
805.730	255.990
805.858	237.663
805.987	237.923
806.115	238.000
806.243	245.183
806.371	241.683
806.499	241.788
806.627	230.462
806.755	242.173
806.883	238.510
807.012	235.519
807.140	245.990
807.268	232.000
807.396	234.250
807.524	232.644
807.652	239.519
807.780	235.212
807.908	231.029
808.037	248.740
808.165	238.827
808.293	230.077
808.421	232.760
808.549	229.913
808.677	232.375
808.805	248.077
808.933	232.692
809.062	233.529
809.190	241.327
809.318	239.375
809.446	224.135
809.574	234.250
809.702	229.356
809.830	223.135
809.958	236.846
810.087	227.942
810.215	225.327
810.343	234.337
810.471	231.269
810.599	223.413
810.727	228.413
810.855	222.788
810.983	224.404
811.112	227.212
811.240	224.096
811.368	222.856
811.496	229.346
811.624	223.548
811.752	223.490
811.880	236.423
812.008	229.327
812.137	240.192
812.265	221.663
812.393	225.683
812.521	214.519
812.649	228.606
812.777	214.356
812.905	232.038
813.033	233.269
813.162	218.760
813.290	217.135
813.418	224.125
813.546	219.404
813.674	220.510
813.802	216.394
813.930	215.077
814.058	214.452
814.187	216.721
814.315	213.779
814.443	217.558
814.571	219.990
814.699	207.423
814.827	211.952
814.955	222.875
815.083	210.663
815.212	215.894
815.340	208.750
815.468	224.212
815.596	210.096
815.724	216.471
815.852	219.221
815.980	210.856
816.108	209.337
816.237	215.125
816.365	224.231
816.493	211.077
816.621	219.452
816.749	204.385
816.877	276.481
817.005	217.923
817.133	212.202
817.262	211.529
817.390	202.077
817.518	212.183
817.646	200.240
817.774	200.000
817.902	199.673
818.030	204.029
818.158	211.702
818.287	206.981
818.415	206.837
818.543	201.567
818.671	202.308
818.799	199.471
818.927	198.808
819.055	227.500
819.183	210.904
819.312	222.683
819.440	204.692
819.568	198.038
819.696	202.202
819.824	203.731
819.952	204.000
820.080	199.510
820.208	200.471
820.337	202.538
820.465	197.163
820.593	200.279
820.721	200.769
820.849	198.125
820.977	196.971
821.105	204.731
821.233	190.635
821.362	208.837
821.490	195.413
821.618	204.029
821.746	209.337
821.874	200.606
822.002	189.885
822.130	194.154
822.258	199.481
822.387	197.154
822.515	203.356
822.643	198.135
822.771	194.490
822.899	199.048
823.027	193.894
823.155	195.798
823.283	207.779
823.412	205.125
823.540	193.567
823.668	191.452
823.796	193.692
823.924	189.038
824.052	193.750
824.180	200.115
824.308	194.923
824.437	209.885
824.565	196.087
824.693	184.452
824.821	187.048
824.949	196.221
825.077	194.298
825.205	184.375
825.333	191.904
825.462	197.202
825.590	189.673
825.718	189.837
825.846	193.106
825.974	190.067
826.102	187.712
826.230	193.567
826.358	194.202
826.487	194.433
826.615	187.365
826.743	182.663
826.871	192.058
826.999	186.038
827.127	188.692
827.255	190.615
827.383	184.154
827.512	183.375
827.640	193.904
827.768	207.442
827.896	183.308
828.024	192.471
828.152	185.125
828.280	186.673
828.408	185.885
828.537	186.288
828.665	184.663
828.793	188.529
828.921	187.183
829.049	188.125
829.177	187.760
829.305	183.337
829.433	185.058
829.562	182.010
829.690	188.490
829.818	189.625
829.946	183.221
830.074	181.827
830.202	179.894
830.330	188.144
830.458	176.529
830.587	190.529
830.715	183.135
830.843	176.548
830.971	184.865
831.099	184.010
831.227	211.000
831.355	177.471
831.483	182.808
831.612	182.163
831.740	179.087
831.868	181.769
831.996	187.692
832.124	181.644
832.252	187.577
832.380	183.135
832.508	180.596
832.637	184.212
832.765	186.808
832.893	184.250
833.021	180.087
833.149	177.587
833.277	180.144
833.405	187.029
833.533	176.750
833.662	184.981
833.790	175.500
833.918	184.837
834.046	175.942
834.174	174.827
834.302	183.327
834.430	173.269
834.558	178.673
834.687	182.846
834.815	179.029
834.943	174.260
835.071	180.115
835.199	184.250
835.327	176.663
835.455	185.548
835.583	174.481
835.712	175.635
835.840	181.038
835.968	172.894
836.096	183.721
836.224	173.865
836.352	181.587
836.480	172.798
836.608	173.260
836.737	178.173
836.865	173.462
836.993	178.942
837.121	182.462
837.249	181.288
837.377	170.327
837.505	169.567
837.633	175.183
837.762	177.885
837.890	179.327
838.018	175.462
838.146	172.923
838.274	175.471
838.402	169.337
838.530	185.788
838.658	179.683
838.787	188.471
838.915	167.519
839.043	180.942
839.171	171.452
839.299	177.500
839.427	197.077
839.555	179.183
839.683	170.760
839.812	173.010
839.940	167.288
840.068	175.365
840.196	196.221
840.324	191.654
840.452	181.260
840.580	172.087
840.708	162.538
840.837	172.394
840.965	169.712
841.093	172.135
841.221	172.260
841.349	167.173
841.477	165.365
841.605	167.837
841.733	171.529
841.862	179.029
841.990	172.279
842.118	168.471
842.246	170.346
842.374	164.683
842.502	181.683
842.630	169.779
842.758	164.731
842.887	176.913
843.015	185.817
843.143	168.625
843.271	171.192
843.399	169.721
843.527	171.433
843.655	171.260
843.783	166.288
843.912	165.125
844.040	164.779
844.168	170.606
844.296	180.212
844.424	177.337
844.552	175.317
844.680	175.423
844.808	169.538
844.937	166.115
845.065	169.404
845.193	184.856
845.321	171.587
845.449	176.952
845.577	170.962
845.705	165.240
845.833	166.837
845.962	175.279
846.090	169.596
846.218	181.788
846.346	174.760
846.474	169.212
846.602	164.000
846.730	171.010
846.858	168.510
846.987	165.173
847.115	173.913
847.243	175.827
847.371	162.933
847.499	165.702
847.627	170.433
847.755	168.202
847.883	175.202
848.012	174.654
848.140	161.000
848.268	166.038
848.396	167.692
848.524	179.500
848.652	168.115
848.780	160.779
848.908	169.817
849.037	171.260
849.165	162.298
849.293	173.288
849.421	169.356
849.549	167.135
849.677	166.433
849.805	175.500
849.933	163.519
850.062	168.337
850.190	167.865
850.318	164.942
850.446	171.173
850.574	166.740
850.702	164.442
850.830	161.163
850.958	167.135
851.087	169.721
851.215	159.471
851.343	164.875
851.471	166.913
851.599	173.971
851.727	174.827
851.855	166.144
851.983	173.240
852.112	165.000
852.240	173.163
852.368	179.096
852.496	164.240
852.624	168.481
852.752	172.923
852.880	168.308
853.008	168.087
853.137	169.538
853.265	171.375
853.393	167.596
853.521	162.269
853.649	171.673
853.777	164.471
853.905	161.635
854.033	161.923
854.162	162.413
854.290	165.404
854.418	176.471
854.546	189.317
854.674	183.942
854.802	168.519
854.930	163.038
855.058	169.125
855.187	160.471
855.315	192.615
855.443	163.442
855.571	166.933
855.699	173.135
855.827	158.096
855.955	161.538
856.083	163.827
856.212	163.952
856.340	170.519
856.468	166.721
856.596	164.558
856.724	172.346
856.852	182.135
856.980	163.106
857.108	160.000
857.237	157.808
857.365	172.154
857.493	168.990
857.621	164.596
857.749	164.183
857.877	164.067
858.005	162.712
858.133	163.077
858.262	161.135
858.390	161.413
858.518	162.038
858.646	169.615
858.774	156.413
858.902	159.712
859.030	166.135
859.158	167.240
859.287	164.452
859.415	168.865
859.543	162.683
859.671	167.510
859.799	173.317
859.927	158.808
860.055	159.894
860.183	154.750
860.312	160.279
860.440	164.279
860.568	153.221
860.696	169.115
860.824	169.885
860.952	158.337
861.080	166.462
861.208	163.721
861.337	159.740
861.465	172.250
861.593	167.288
861.721	168.769
861.849	168.577
861.977	163.096
862.105	168.875
862.233	161.740
862.362	161.385
862.490	158.365
862.618	159.048
862.746	159.481
862.874	164.519
863.002	166.413
863.130	164.577
863.258	168.462
863.387	166.010
863.515	165.846
863.643	167.702
863.771	166.269
863.899	165.327
864.027	168.279
864.155	186.673
864.283	162.038
864.412	160.365
864.540	168.231
864.668	159.000
864.796	160.510
864.924	162.029
865.052	157.577
865.180	175.442
865.308	166.625
865.437	164.490
865.565	161.067
865.693	161.538
865.821	159.596
865.949	178.115
866.077	163.385
866.205	161.096
866.333	166.885
866.462	158.683
866.590	166.029
866.718	162.567
866.846	159.279
866.974	162.971
867.102	154.587
867.230	169.846
867.358	159.337
867.487	169.846
867.615	173.779
867.743	160.029
867.871	172.904
867.999	161.192
868.127	171.029
868.255	178.519
868.383	153.356
868.512	164.683
868.640	164.298
868.768	161.519
868.896	173.096
869.024	161.096
869.152	158.519
869.280	156.317
869.408	157.885
869.537	157.760
869.665	159.856
869.793	158.683
869.921	165.692
870.049	154.327
870.177	161.837
870.305	155.779
870.433	159.635
870.562	162.365
870.690	159.356
870.818	165.942
870.946	159.875
871.074	155.269
871.202	161.115
871.330	156.538
871.458	162.240
871.587	158.365
871.715	162.115
871.843	164.740
871.971	167.683
872.099	153.135
872.227	162.519
872.355	160.115
872.483	157.788
872.612	164.029
872.740	159.827
872.868	159.510
872.996	161.865
873.124	169.827
873.252	161.673
873.380	151.933
873.508	166.115
873.637	165.481
873.765	157.933
873.893	154.663
874.021	159.327
874.149	159.452
874.277	159.183
874.405	164.913
874.533	167.308
874.662	155.702
874.790	162.558
874.918	155.269
875.046	166.288
875.174	160.125
875.302	157.692
875.430	156.750
875.558	161.183
875.687	166.067
875.815	157.365
875.943	163.038
876.071	160.827
876.199	164.481
876.327	161.394
876.455	159.971
876.583	156.702
876.712	163.702
876.840	160.423
876.968	160.712
877.096	163.260
877.224	159.048
877.352	156.433
877.480	159.962
877.608	171.163
877.737	162.702
877.865	156.327
877.993	163.269
878.121	165.125
878.249	158.433
878.377	157.135
878.505	164.154
878.633	164.817
878.762	157.942
878.890	159.779
879.018	162.538
879.146	162.317
879.274	186.288
879.402	163.000
879.530	157.433
879.658	159.577
879.787	159.702
879.915	154.413
880.043	154.644
880.171	193.250
880.299	162.692
880.427	164.760
880.555	154.529
880.683	162.308
880.812	162.490
880.940	158.625
881.068	170.760
881.196	157.135
881.324	154.913
881.452	158.058
881.580	159.817
881.708	168.337
881.837	163.413
881.965	162.298
882.093	155.269
882.221	157.529
882.349	152.673
882.477	162.433
882.605	160.260
882.733	163.500
882.862	158.231
882.990	167.798
883.118	166.615
883.246	168.240
883.374	161.173
883.502	167.510
883.630	166.221
883.758	157.038
883.887	162.510
884.015	163.423
884.143	167.000
884.271	161.231
884.399	155.644
884.527	161.106
884.655	158.990
884.783	163.202
884.912	183.990
885.040	166.250
885.168	158.750
885.296	168.192
885.424	158.712
885.552	164.279
885.680	173.577
885.808	166.692
885.937	167.981
886.065	171.154
886.193	159.192
886.321	156.615
886.449	155.952
886.577	160.567
886.705	171.154
886.833	154.971
886.962	165.808
887.090	163.490
887.218	156.923
887.346	160.510
887.474	159.904
887.602	162.173
887.730	152.837
887.858	157.231
887.987	160.279
888.115	161.365
888.243	158.788
888.371	169.375
888.499	160.317
888.627	158.798
888.755	163.240
888.883	160.990
889.012	162.298
889.140	159.221
889.268	162.212
889.396	151.087
889.524	164.837
889.652	152.654
889.780	158.750
889.908	160.538
890.037	169.721
890.165	159.125
890.293	161.308
890.421	160.596
890.549	155.606
890.677	155.596
890.805	159.702
890.933	155.327
891.062	159.433
891.190	159.721
891.318	155.442
891.446	160.750
891.574	150.683
891.702	157.317
891.830	158.712
891.958	169.952
892.087	165.740
892.215	163.173
892.343	160.298
892.471	166.250
892.599	155.221
892.727	162.615
892.855	182.212
892.983	150.827
893.112	155.038
893.240	168.913
893.368	156.933
893.496	167.923
893.624	165.798
893.752	183.702
893.880	164.817
894.008	162.413
894.137	157.192
894.265	165.846
894.393	160.433
894.521	166.615
894.649	158.981
894.777	158.558
894.905	195.413
895.033	160.365
895.162	157.625
895.290	167.346
895.418	161.731
895.546	194.481
895.674	164.298
895.802	200.817
895.930	162.183
896.058	159.038
896.187	161.452
896.315	158.808
896.443	170.702
896.571	185.346
896.699	160.115
896.827	160.577
896.955	160.529
897.083	163.490
897.212	158.125
897.340	158.471
897.468	161.894
897.596	157.471
897.724	160.087
897.852	157.644
897.980	154.577
898.108	168.202
898.237	159.596
898.365	161.029
898.493	165.644
898.621	156.712
898.749	160.144
898.877	162.221
899.005	159.500
899.133	160.644
899.262	178.019
899.390	158.808
899.518	161.683
899.646	156.788
899.774	154.442
899.902	154.029
900.030	171.837
900.158	159.154
900.287	159.885
900.415	158.038
900.543	162.712
900.671	166.894
900.799	160.798
900.927	156.587
901.055	173.779
901.183	170.510
901.312	167.769
901.440	156.048
901.568	158.413
901.696	156.413
901.824	155.240
901.952	156.212
902.080	166.058
902.208	157.510
902.337	171.673
902.465	161.644
902.593	171.692
902.721	182.029
902.849	180.548
902.977	162.365
903.105	163.981
903.233	165.827
903.362	155.923
903.490	170.240
903.618	164.606
903.746	153.846
903.874	164.019
904.002	159.788
904.130	172.731
904.258	154.567
904.387	165.452
904.515	150.846
904.643	165.231
904.771	158.356
904.899	159.933
905.027	165.875
905.155	161.404
905.283	154.760
905.412	178.308
905.540	163.894
905.668	160.625
905.796	160.538
905.924	157.750
906.052	163.067
906.180	166.240
906.308	160.577
906.437	158.702
906.565	166.683
906.693	167.635
906.821	155.702
906.949	164.394
907.077	155.606
907.205	168.202
907.333	156.808
907.462	160.135
907.590	160.596
907.718	158.231
907.846	164.837
907.974	157.240
908.102	162.779
908.230	166.846
908.358	160.144
908.487	156.673
908.615	169.750
908.743	170.077
908.871	162.587
908.999	159.096
909.127	165.365
909.255	169.952
909.383	161.846
909.512	156.798
909.640	173.221
909.768	158.000
909.896	168.183
910.024	167.404
910.152	174.231
910.280	167.510
910.408	158.567
910.537	158.712
910.665	168.721
910.793	165.596
910.921	167.135
911.049	170.452
911.177	172.471
911.305	166.481
911.433	189.356
911.562	168.971
911.690	168.481
911.818	162.317
911.946	167.702
912.074	170.077
912.202	161.894
912.330	181.337
912.458	160.731
912.587	166.827
912.715	168.010
912.843	179.106
912.971	170.990
913.099	185.490
913.227	174.644
913.355	174.712
913.483	183.308
913.612	177.163
913.740	198.135
913.868	170.423
