sample7h_at_750.00nm_cut_at_1060.50Y_01.dat
19.06.2023
11:10:43
cut middle at Y: 1060.50
top cursor: 1109 down cursor: 1012 mean of: 97 lines , 2560 datapoints
wavelength(nm)	intensity[arb. units]
585.996	801.588
586.124	772.845
586.252	775.247
586.380	775.454
586.508	779.299
586.637	774.072
586.765	782.381
586.893	780.454
587.021	794.186
587.149	787.330
587.277	787.093
587.405	787.577
587.533	785.371
587.662	793.526
587.790	799.113
587.918	790.763
588.046	796.505
588.174	794.289
588.302	790.082
588.430	795.866
588.558	790.237
588.687	802.155
588.815	808.753
588.943	809.979
589.071	808.186
589.199	801.082
589.327	808.814
589.455	797.567
589.583	803.155
589.712	804.124
589.840	811.722
589.968	803.381
590.096	804.351
590.224	814.536
590.352	824.196
590.480	820.000
590.608	817.825
590.737	817.557
590.865	821.155
590.993	820.371
591.121	822.381
591.249	821.062
591.377	819.124
591.505	819.629
591.633	819.464
591.762	828.021
591.890	830.103
592.018	831.588
592.146	827.474
592.274	828.155
592.402	827.062
592.530	830.876
592.658	819.557
592.787	833.072
592.915	829.309
593.043	827.216
593.171	830.598
593.299	836.773
593.427	830.175
593.555	831.598
593.683	829.722
593.812	833.268
593.940	830.938
594.068	842.526
594.196	836.990
594.324	836.258
594.452	842.526
594.580	842.165
594.708	844.351
594.837	846.165
594.965	851.072
595.093	842.072
595.221	846.474
595.349	853.938
595.477	840.299
595.605	849.557
595.733	857.062
595.862	854.763
595.990	858.722
596.118	855.990
596.246	862.454
596.374	862.814
596.502	863.371
596.630	864.639
596.758	865.041
596.887	865.000
597.015	870.103
597.143	870.351
597.271	869.021
597.399	867.454
597.527	867.619
597.655	868.856
597.783	871.629
597.912	865.247
598.040	867.845
598.168	872.474
598.296	873.670
598.424	873.309
598.552	867.371
598.680	871.701
598.808	870.866
598.937	877.557
599.065	870.361
599.193	869.309
599.321	867.247
599.449	880.680
599.577	866.722
599.705	869.000
599.833	871.433
599.962	873.588
600.090	866.918
600.218	876.443
600.346	876.639
600.474	875.340
600.602	882.124
600.730	877.701
600.858	875.825
600.987	880.227
601.115	876.052
601.243	880.495
601.371	886.000
601.499	881.412
601.627	883.412
601.755	889.670
601.883	888.433
602.012	891.557
602.140	887.825
602.268	889.062
602.396	889.474
602.524	887.381
602.652	897.495
602.780	899.639
602.908	898.289
603.037	892.887
603.165	909.454
603.293	906.887
603.421	912.371
603.549	909.371
603.677	913.577
603.805	911.330
603.933	924.608
604.062	909.784
604.190	923.990
604.318	917.536
604.446	928.278
604.574	925.701
604.702	932.309
604.830	920.866
604.958	938.495
605.087	938.515
605.215	938.155
605.343	939.680
605.471	957.330
605.599	939.443
605.727	944.629
605.855	951.505
605.983	936.082
606.112	953.515
606.240	960.227
606.368	954.072
606.496	953.907
606.624	947.505
606.752	954.268
606.880	955.320
607.008	955.443
607.137	955.247
607.265	962.928
607.393	964.588
607.521	962.567
607.649	961.897
607.777	961.186
607.905	956.392
608.033	967.258
608.162	956.546
608.290	957.577
608.418	964.309
608.546	966.979
608.674	962.794
608.802	962.495
608.930	965.588
609.058	957.577
609.187	953.206
609.315	958.381
609.443	961.918
609.571	963.948
609.699	957.856
609.827	959.660
609.955	962.546
610.083	962.814
610.212	957.113
610.340	961.000
610.468	956.433
610.596	963.711
610.724	960.010
610.852	950.278
610.980	963.340
611.108	967.753
611.237	960.381
611.365	962.608
611.493	967.845
611.621	964.031
611.749	967.691
611.877	969.309
612.005	963.258
612.133	970.629
612.262	965.093
612.390	965.495
612.518	976.680
612.646	970.794
612.774	960.856
612.902	977.309
613.030	976.876
613.158	970.794
613.287	990.155
613.415	980.412
613.543	988.041
613.671	992.000
613.799	991.454
613.927	981.536
614.055	981.546
614.183	997.000
614.312	986.763
614.440	989.763
614.568	989.680
614.696	993.619
614.824	995.309
614.952	996.990
615.080	997.639
615.208	1001.938
615.337	1006.948
615.465	1002.876
615.593	1011.227
615.721	1009.515
615.849	1015.856
615.977	1004.155
616.105	1000.165
616.233	1006.577
616.362	1002.876
616.490	1011.649
616.618	1007.082
616.746	1014.103
616.874	1007.918
617.002	1017.052
617.130	1022.454
617.258	1011.701
617.387	1012.649
617.515	1015.443
617.643	1008.010
617.771	1012.660
617.899	1014.371
618.027	1011.701
618.155	1018.454
618.283	1013.722
618.412	1016.072
618.540	1021.856
618.668	1024.856
618.796	1014.588
618.924	1027.691
619.052	1022.237
619.180	1027.691
619.308	1028.526
619.437	1020.866
619.565	1023.309
619.693	1021.897
619.821	1029.794
619.949	1029.763
620.077	1024.258
620.205	1039.495
620.333	1025.814
620.462	1030.691
620.590	1039.742
620.718	1029.577
620.846	1038.732
620.974	1040.856
621.102	1033.072
621.230	1029.825
621.358	1031.701
621.487	1031.680
621.615	1029.649
621.743	1034.670
621.871	1035.680
621.999	1031.866
622.127	1035.289
622.255	1027.526
622.383	1037.897
622.512	1033.443
622.640	1031.526
622.768	1029.000
622.896	1027.443
623.024	1033.392
623.152	1039.247
623.280	1034.206
623.408	1033.784
623.537	1037.619
623.665	1032.990
623.793	1037.680
623.921	1031.753
624.049	1041.062
624.177	1035.268
624.305	1035.918
624.433	1033.619
624.562	1030.876
624.690	1033.041
624.818	1030.732
624.946	1040.660
625.074	1032.340
625.202	1034.010
625.330	1030.227
625.458	1034.124
625.587	1026.485
625.715	1030.588
625.843	1019.330
625.971	1028.351
626.099	1027.959
626.227	1036.546
626.355	1022.979
626.483	1036.278
626.612	1034.412
626.740	1029.021
626.868	1042.041
626.996	1035.052
627.124	1032.433
627.252	1024.567
627.380	1038.340
627.508	1029.340
627.637	1029.515
627.765	1028.959
627.893	1034.289
628.021	1025.577
628.149	1025.443
628.277	1040.134
628.405	1038.701
628.533	1032.608
628.662	1021.784
628.790	1034.113
628.918	1029.093
629.046	1031.804
629.174	1028.082
629.302	1030.495
629.430	1034.567
629.558	1035.299
629.687	1029.732
629.815	1027.320
629.943	1038.144
630.071	1031.186
630.199	1034.041
630.327	1023.010
630.455	1029.577
630.583	1036.753
630.712	1040.649
630.840	1033.144
630.968	1045.196
631.096	1043.392
631.224	1029.495
631.352	1027.804
631.480	1025.412
631.608	1037.804
631.737	1028.144
631.865	1047.495
631.993	1034.660
632.121	1041.196
632.249	1033.845
632.377	1048.371
632.505	1037.577
632.633	1033.320
632.762	1040.732
632.890	1041.485
633.018	1039.742
633.146	1035.742
633.274	1032.402
633.402	1028.237
633.530	1032.742
633.658	1036.918
633.787	1023.041
633.915	1032.320
634.043	1031.052
634.171	1032.412
634.299	1024.113
634.427	1023.948
634.555	1026.196
634.683	1028.206
634.812	1023.629
634.940	1025.814
635.068	1016.784
635.196	1021.887
635.324	1023.629
635.452	1016.361
635.580	1019.866
635.708	1013.680
635.837	1015.381
635.965	1013.474
636.093	1009.814
636.221	1006.124
636.349	1002.206
636.477	996.031
636.605	996.031
636.733	1004.969
636.862	998.959
636.990	994.979
637.118	995.825
637.246	993.206
637.374	989.536
637.502	992.835
637.630	1001.175
637.758	992.567
637.887	987.763
638.015	984.175
638.143	990.928
638.271	975.536
638.399	985.175
638.527	978.732
638.655	976.639
638.783	989.371
638.912	967.433
639.040	976.155
639.168	975.392
639.296	972.918
639.424	970.351
639.552	977.856
639.680	974.711
639.808	971.423
639.937	958.773
640.065	968.876
640.193	977.124
640.321	962.608
640.449	972.412
640.577	964.969
640.705	966.680
640.833	965.309
640.962	971.433
641.090	959.680
641.218	967.000
641.346	957.237
641.474	954.031
641.602	961.691
641.730	969.103
641.858	959.062
641.987	964.938
642.115	957.928
642.243	958.804
642.371	961.093
642.499	960.649
642.627	950.278
642.755	961.124
642.883	961.691
643.012	955.041
643.140	956.959
643.268	956.907
643.396	962.990
643.524	962.515
643.652	969.784
643.780	947.907
643.908	961.639
644.037	952.866
644.165	959.320
644.293	958.175
644.421	942.742
644.549	948.526
644.677	964.206
644.805	947.969
644.933	945.959
645.062	952.948
645.190	948.660
645.318	947.103
645.446	955.722
645.574	953.897
645.702	945.237
645.830	952.711
645.958	950.711
646.087	949.021
646.215	951.660
646.343	947.289
646.471	943.330
646.599	951.247
646.727	941.268
646.855	943.309
646.983	950.392
647.112	942.722
647.240	939.907
647.368	933.485
647.496	931.629
647.624	935.155
647.752	929.186
647.880	935.753
648.008	931.897
648.137	931.371
648.265	922.320
648.393	918.918
648.521	923.732
648.649	927.299
648.777	915.299
648.905	924.093
649.033	907.546
649.162	905.402
649.290	911.392
649.418	906.155
649.546	902.969
649.674	909.381
649.802	917.722
649.930	909.412
650.058	897.660
650.187	907.763
650.315	911.392
650.443	894.608
650.571	905.887
650.699	904.041
650.827	891.505
650.955	895.670
651.083	895.567
651.212	884.866
651.340	884.701
651.468	890.619
651.596	886.608
651.724	886.722
651.852	885.361
651.980	871.320
652.108	887.918
652.237	878.351
652.365	875.113
652.493	876.464
652.621	877.763
652.749	874.433
652.877	873.629
653.005	873.928
653.133	872.165
653.262	872.567
653.390	860.320
653.518	863.866
653.646	863.763
653.774	865.000
653.902	879.835
654.030	865.866
654.158	858.000
654.287	860.691
654.415	851.402
654.543	857.701
654.671	848.784
654.799	849.206
654.927	856.134
655.055	843.835
655.183	845.052
655.312	840.412
655.440	847.546
655.568	847.722
655.696	843.876
655.824	846.021
655.952	836.443
656.080	836.474
656.208	842.722
656.337	833.258
656.465	834.474
656.593	828.454
656.721	823.175
656.849	834.608
656.977	831.546
657.105	830.196
657.233	814.474
657.362	816.113
657.490	818.918
657.618	821.423
657.746	815.082
657.874	814.155
658.002	814.392
658.130	807.216
658.258	812.557
658.387	803.918
658.515	805.113
658.643	806.536
658.771	808.371
658.899	796.649
659.027	797.031
659.155	800.866
659.283	788.031
659.412	789.742
659.540	791.443
659.668	797.402
659.796	789.866
659.924	794.876
660.052	792.443
660.180	783.536
660.308	785.072
660.437	782.794
660.565	785.000
660.693	785.392
660.821	780.196
660.949	774.474
661.077	783.464
661.205	778.320
661.333	766.515
661.462	793.186
661.590	778.897
661.718	770.351
661.846	771.588
661.974	768.052
662.102	766.897
662.230	768.402
662.358	767.918
662.487	760.258
662.615	762.412
662.743	763.103
662.871	766.567
662.999	759.948
663.127	761.928
663.255	749.289
663.383	759.670
663.512	755.742
663.640	751.165
663.768	762.959
663.896	760.711
664.024	752.711
664.152	751.876
664.280	755.474
664.408	752.381
664.537	753.577
664.665	759.062
664.793	742.216
664.921	742.938
665.049	741.299
665.177	747.959
665.305	748.371
665.433	742.557
665.562	743.918
665.690	737.649
665.818	744.866
665.946	737.165
666.074	737.299
666.202	734.804
666.330	738.000
666.458	733.423
666.587	734.186
666.715	732.825
666.843	733.907
666.971	727.814
667.099	732.454
667.227	730.041
667.355	727.485
667.483	724.237
667.612	722.928
667.740	723.918
667.868	725.577
667.996	722.402
668.124	719.918
668.252	724.464
668.380	717.340
668.508	722.948
668.637	705.577
668.765	713.784
668.893	707.412
669.021	705.567
669.149	702.423
669.277	708.619
669.405	707.969
669.533	703.299
669.662	706.918
669.790	702.474
669.918	701.804
670.046	701.144
670.174	699.866
670.302	697.495
670.430	688.309
670.558	692.165
670.687	696.526
670.815	687.701
670.943	694.711
671.071	693.464
671.199	681.216
671.327	685.361
671.455	683.701
671.583	681.794
671.712	678.134
671.840	677.103
671.968	676.598
672.096	673.433
672.224	668.196
672.352	672.196
672.480	671.753
672.608	669.948
672.737	665.196
672.865	665.660
672.993	661.247
673.121	654.701
673.249	663.433
673.377	658.371
673.505	653.608
673.633	649.041
673.762	655.804
673.890	653.299
674.018	645.144
674.146	644.464
674.274	643.423
674.402	639.670
674.530	643.134
674.658	645.711
674.787	634.938
674.915	644.289
675.043	636.732
675.171	631.495
675.299	624.701
675.427	628.866
675.555	626.876
675.683	624.495
675.812	619.536
675.940	621.113
676.068	627.866
676.196	616.773
676.324	615.320
676.452	618.268
676.580	610.629
676.708	614.876
676.837	617.392
676.965	606.536
677.093	605.206
677.221	604.763
677.349	599.093
677.477	605.557
677.605	601.691
677.733	608.268
677.862	591.742
677.990	596.000
678.118	595.598
678.246	591.742
678.374	594.361
678.502	590.134
678.630	587.577
678.758	588.041
678.887	586.186
679.015	594.577
679.143	583.660
679.271	585.474
679.399	581.660
679.527	576.072
679.655	575.237
679.783	577.856
679.912	572.103
680.040	578.155
680.168	570.918
680.296	562.062
680.424	570.278
680.552	571.588
680.680	564.021
680.808	563.876
680.937	564.804
681.065	558.866
681.193	558.588
681.321	558.299
681.449	563.041
681.577	555.062
681.705	552.010
681.833	546.753
681.962	556.258
682.090	550.928
682.218	547.680
682.346	542.639
682.474	549.412
682.602	553.206
682.730	545.258
682.858	540.722
682.987	551.155
683.115	547.392
683.243	545.918
683.371	547.299
683.499	538.392
683.627	539.082
683.755	537.371
683.883	538.412
684.012	535.412
684.140	537.361
684.268	533.268
684.396	537.938
684.524	536.134
684.652	533.804
684.780	544.660
684.908	526.495
685.037	530.062
685.165	525.186
685.293	530.505
685.421	523.753
685.549	519.938
685.677	525.897
685.805	527.495
685.933	527.412
686.062	524.866
686.190	521.093
686.318	528.598
686.446	524.825
686.574	521.732
686.702	520.814
686.830	518.588
686.958	522.773
687.087	520.206
687.215	514.969
687.343	512.897
687.471	523.381
687.599	519.732
687.727	512.082
687.855	513.144
687.983	514.577
688.112	518.320
688.240	511.103
688.368	511.608
688.496	509.186
688.624	510.041
688.752	509.794
688.880	506.175
689.008	507.381
689.137	504.103
689.265	503.938
689.393	502.680
689.521	506.577
689.649	502.959
689.777	501.557
689.905	494.227
690.033	502.175
690.162	489.598
690.290	495.835
690.418	491.000
690.546	494.320
690.674	488.000
690.802	488.299
690.930	484.866
691.058	484.722
691.187	480.258
691.315	484.608
691.443	484.619
691.571	482.309
691.699	478.320
691.827	478.763
691.955	473.948
692.083	480.247
692.212	473.608
692.340	475.289
692.468	468.814
692.596	471.010
692.724	469.732
692.852	467.052
692.980	459.979
693.108	457.113
693.237	464.196
693.365	463.732
693.493	466.031
693.621	455.629
693.749	457.763
693.877	453.526
694.005	455.835
694.133	454.103
694.262	455.619
694.390	453.948
694.518	443.371
694.646	443.608
694.774	447.340
694.902	448.608
695.030	446.412
695.158	445.784
695.287	442.680
695.415	445.722
695.543	436.433
695.671	441.454
695.799	438.103
695.927	433.309
696.055	433.773
696.183	439.907
696.312	436.495
696.440	430.814
696.568	433.969
696.696	432.072
696.824	426.485
696.952	430.351
697.080	423.887
697.208	427.773
697.337	423.588
697.465	424.454
697.593	421.588
697.721	421.804
697.849	422.052
697.977	421.320
698.105	415.495
698.233	418.124
698.362	416.134
698.490	420.351
698.618	414.711
698.746	412.794
698.874	413.763
699.002	409.773
699.130	413.206
699.258	411.505
699.387	409.361
699.515	403.835
699.643	407.206
699.771	405.062
699.899	408.041
700.027	399.175
700.155	402.845
700.283	407.649
700.412	395.320
700.540	403.608
700.668	395.155
700.796	396.680
700.924	394.113
701.052	396.876
701.180	391.247
701.308	386.247
701.437	387.969
701.565	389.082
701.693	388.959
701.821	387.433
701.949	386.660
702.077	384.536
702.205	386.186
702.333	380.732
702.462	381.804
702.590	381.423
702.718	377.753
702.846	372.722
702.974	374.969
703.102	373.732
703.230	376.577
703.358	371.546
703.487	365.825
703.615	366.134
703.743	370.278
703.871	367.309
703.999	363.309
704.127	365.680
704.255	359.505
704.383	357.124
704.512	360.052
704.640	357.124
704.768	357.423
704.896	359.392
705.024	352.794
705.152	356.196
705.280	353.206
705.408	354.289
705.537	352.856
705.665	351.216
705.793	349.814
705.921	346.485
706.049	349.845
706.177	344.371
706.305	348.474
706.433	345.052
706.562	339.979
706.690	344.814
706.818	342.299
706.946	340.639
707.074	340.515
707.202	337.918
707.330	338.124
707.458	336.742
707.587	334.031
707.715	330.959
707.843	335.289
707.971	337.113
708.099	329.371
708.227	328.876
708.355	325.577
708.483	329.711
708.612	327.897
708.740	335.351
708.868	327.990
708.996	326.402
709.124	328.918
709.252	323.969
709.380	325.247
709.508	325.443
709.637	321.948
709.765	319.134
709.893	315.351
710.021	319.649
710.149	319.660
710.277	319.948
710.405	315.649
710.533	314.619
710.662	316.175
710.790	318.608
710.918	315.969
711.046	315.557
711.174	315.165
711.302	309.670
711.430	315.629
711.558	311.062
711.687	312.052
711.815	314.959
711.943	311.505
712.071	311.278
712.199	308.093
712.327	307.144
712.455	302.959
712.583	306.784
712.712	306.495
712.840	302.155
712.968	304.082
713.096	305.876
713.224	300.814
713.352	302.567
713.480	300.505
713.608	303.309
713.737	297.845
713.865	300.289
713.993	299.979
714.121	297.216
714.249	300.361
714.377	299.660
714.505	298.474
714.633	293.072
714.762	295.897
714.890	295.000
715.018	298.454
715.146	292.526
715.274	296.680
715.402	290.443
715.530	290.093
715.658	293.804
715.787	293.660
715.915	289.351
716.043	289.247
716.171	283.351
716.299	290.588
716.427	289.567
716.555	290.897
716.683	285.186
716.812	286.701
716.940	287.072
717.068	287.825
717.196	286.361
717.324	281.742
717.452	282.990
717.580	279.433
717.708	282.649
717.837	276.206
717.965	280.485
718.093	279.175
718.221	274.227
718.349	279.753
718.477	282.732
718.605	268.619
718.733	278.082
718.862	273.907
718.990	275.505
719.118	273.351
719.246	271.691
719.374	273.041
719.502	273.330
719.630	271.134
719.758	274.577
719.887	271.392
720.015	268.309
720.143	264.969
720.271	267.567
720.399	266.278
720.527	269.103
720.655	266.876
720.783	263.247
720.912	263.216
721.040	267.990
721.168	262.144
721.296	258.062
721.424	260.412
721.552	254.227
721.680	254.598
721.808	262.402
721.937	256.804
722.065	257.918
722.193	252.969
722.321	254.402
722.449	254.247
722.577	254.258
722.705	250.320
722.833	248.010
722.962	252.691
723.090	250.845
723.218	249.505
723.346	247.598
723.474	250.113
723.602	239.577
723.730	243.753
723.858	242.938
723.987	245.897
724.115	240.433
724.243	240.845
724.371	241.711
724.499	245.113
724.627	238.495
724.755	245.216
724.883	238.680
725.012	239.948
725.140	238.629
725.268	245.711
725.396	235.062
725.524	237.948
725.652	238.588
725.780	232.402
725.908	230.608
726.037	235.454
726.165	237.608
726.293	235.268
726.421	232.113
726.549	230.722
726.677	227.144
726.805	231.237
726.933	232.835
727.062	227.402
727.190	230.866
727.318	229.577
727.446	228.804
727.574	234.433
727.702	229.784
727.830	226.113
727.958	226.515
728.087	226.247
728.215	221.206
728.343	223.175
728.471	227.598
728.599	220.206
728.727	222.784
728.855	224.897
728.983	223.165
729.112	221.546
729.240	222.227
729.368	218.093
729.496	218.588
729.624	218.196
729.752	222.175
729.880	218.052
730.008	217.763
730.137	216.526
730.265	219.412
730.393	214.557
730.521	213.258
730.649	212.299
730.777	214.660
730.905	211.402
731.033	212.691
731.162	217.381
731.290	211.876
731.418	208.299
731.546	210.186
731.674	209.753
731.802	207.990
731.930	209.196
732.058	206.629
732.187	209.103
732.315	213.742
732.443	210.021
732.571	206.155
732.699	211.237
732.827	208.165
732.955	205.897
733.083	208.959
733.212	204.629
733.340	206.309
733.468	206.835
733.596	207.608
733.724	203.907
733.852	206.629
733.980	201.320
734.108	203.691
734.237	201.619
734.365	198.897
734.493	204.753
734.621	207.041
734.749	203.227
734.877	203.433
735.005	202.588
735.133	202.000
735.262	203.155
735.390	201.093
735.518	198.856
735.646	198.505
735.774	196.691
735.902	202.464
736.030	198.330
736.158	199.031
736.287	198.155
736.415	201.928
736.543	198.701
736.671	195.598
736.799	200.062
736.927	195.402
737.055	198.928
737.183	197.732
737.312	197.639
737.440	194.588
737.568	198.948
737.696	194.371
737.824	195.464
737.952	195.794
738.080	195.320
738.208	194.794
738.337	193.072
738.465	191.629
738.593	192.979
738.721	192.175
738.849	194.258
738.977	194.577
739.105	193.433
739.233	190.495
739.362	188.825
739.490	190.505
739.618	190.649
739.746	189.691
739.874	190.165
740.002	191.629
740.130	186.443
740.258	188.515
740.387	192.485
740.515	189.082
740.643	191.649
740.771	188.680
740.899	187.918
741.027	184.990
741.155	186.660
741.283	185.794
741.412	186.021
741.540	187.113
741.668	184.907
741.796	189.227
741.924	185.588
742.052	186.289
742.180	187.381
742.308	182.784
742.437	185.804
742.565	185.041
742.693	183.247
742.821	184.969
742.949	182.124
743.077	182.629
743.205	185.041
743.333	183.041
743.462	182.010
743.590	182.433
743.718	182.062
743.846	179.814
743.974	181.825
744.102	181.825
744.230	182.134
744.358	178.433
744.487	182.010
744.615	177.402
744.743	179.289
744.871	180.907
744.999	173.454
745.127	177.928
745.255	177.227
745.383	177.928
745.512	178.485
745.640	177.227
745.768	176.144
745.896	172.021
746.024	178.577
746.152	173.402
746.280	175.567
746.408	174.247
746.537	177.732
746.665	177.711
746.793	174.639
746.921	179.825
747.049	174.082
747.177	175.711
747.305	174.454
747.433	171.979
747.562	172.567
747.690	170.361
747.818	175.258
747.946	172.113
748.074	168.361
748.202	170.938
748.330	171.763
748.458	173.845
748.587	170.557
748.715	166.093
748.843	169.113
748.971	167.691
749.099	172.969
749.227	167.526
749.355	166.371
749.483	169.082
749.612	168.278
749.740	168.619
749.868	166.082
749.996	166.608
750.124	167.072
750.252	166.144
750.380	165.247
750.508	167.608
750.637	163.175
750.765	166.773
750.893	168.227
751.021	162.959
751.149	168.619
751.277	166.845
751.405	165.144
751.533	165.021
751.662	169.371
751.790	166.206
751.918	169.330
752.046	166.598
752.174	162.804
752.302	163.876
752.430	161.711
752.558	165.186
752.687	162.093
752.815	164.433
752.943	165.124
753.071	161.742
753.199	161.990
753.327	162.041
753.455	160.670
753.583	159.423
753.712	163.773
753.840	158.948
753.968	163.175
754.096	160.093
754.224	159.299
754.352	158.340
754.480	158.680
754.608	160.845
754.737	156.701
754.865	160.485
754.993	161.918
755.121	159.402
755.249	158.804
755.377	157.835
755.505	156.598
755.633	161.866
755.762	156.649
755.890	156.402
756.018	156.340
756.146	157.062
756.274	156.680
756.402	157.670
756.530	156.330
756.658	154.103
756.787	154.351
756.915	151.649
757.043	154.485
757.171	155.753
757.299	152.979
757.427	153.619
757.555	151.340
757.683	154.835
757.812	153.732
757.940	153.948
758.068	153.371
758.196	154.990
758.324	156.660
758.452	152.041
758.580	150.784
758.708	153.495
758.837	154.031
758.965	151.990
759.093	149.289
759.221	153.845
759.349	151.340
759.477	152.330
759.605	149.742
759.733	151.567
759.862	152.196
759.990	150.062
760.118	147.227
760.246	147.021
760.374	149.660
760.502	148.165
760.630	146.062
760.758	148.258
760.887	145.144
761.015	143.567
761.143	145.072
761.271	145.629
761.399	145.588
761.527	148.763
761.655	145.804
761.783	147.546
761.912	146.381
762.040	144.258
762.168	146.206
762.296	143.082
762.424	145.979
762.552	143.196
762.680	142.546
762.808	143.361
762.937	143.227
763.065	141.948
763.193	143.887
763.321	144.340
763.449	141.443
763.577	141.216
763.705	141.433
763.833	142.670
763.962	141.196
764.090	140.155
764.218	142.990
764.346	139.928
764.474	140.464
764.602	142.144
764.730	140.825
764.858	141.433
764.987	141.701
765.115	140.237
765.243	141.897
765.371	139.722
765.499	139.701
765.627	138.938
765.755	136.938
765.883	136.144
766.012	139.423
766.140	140.268
766.268	137.629
766.396	138.794
766.524	136.103
766.652	136.773
766.780	137.155
766.908	136.175
767.037	140.732
767.165	136.856
767.293	139.639
767.421	138.186
767.549	136.711
767.677	138.186
767.805	139.536
767.933	138.247
768.062	136.031
768.190	136.629
768.318	139.082
768.446	138.165
768.574	135.041
768.702	138.825
768.830	136.784
768.958	134.010
769.087	138.670
769.215	138.505
769.343	138.113
769.471	135.536
769.599	138.845
769.727	137.742
769.855	136.505
769.983	132.619
770.112	134.577
770.240	134.485
770.368	136.495
770.496	137.907
770.624	136.361
770.752	140.216
770.880	136.186
771.008	136.113
771.137	135.454
771.265	136.062
771.393	135.392
771.521	135.402
771.649	136.660
771.777	134.928
771.905	136.021
772.033	141.186
772.162	136.969
772.290	136.536
772.418	136.773
772.546	133.546
772.674	137.567
772.802	136.948
772.930	133.124
773.058	135.907
773.187	133.412
773.315	135.381
773.443	135.866
773.571	136.000
773.699	132.216
773.827	135.557
773.955	136.598
774.083	133.814
774.212	133.433
774.340	134.124
774.468	134.433
774.596	134.361
774.724	135.907
774.852	133.165
774.980	135.093
775.108	135.021
775.237	134.299
775.365	134.289
775.493	135.557
775.621	134.546
775.749	134.784
775.877	134.856
776.005	136.082
776.133	134.619
776.262	134.856
776.390	135.258
776.518	133.278
776.646	135.010
776.774	133.526
776.902	136.093
777.030	134.711
777.158	133.124
777.287	135.412
777.415	133.876
777.543	133.041
777.671	132.887
777.799	134.289
777.927	134.753
778.055	132.000
778.183	135.526
778.312	133.897
778.440	133.196
778.568	133.113
778.696	133.031
778.824	136.691
778.952	135.021
779.080	132.814
779.208	133.412
779.337	132.268
779.465	131.175
779.593	133.361
779.721	134.000
779.849	131.093
779.977	133.856
780.105	131.412
780.233	133.299
780.362	130.825
780.490	130.371
780.618	132.443
780.746	131.443
780.874	130.155
781.002	132.495
781.130	131.711
781.258	130.412
781.387	133.082
781.515	131.330
781.643	130.619
781.771	132.948
781.899	132.495
782.027	131.536
782.155	131.392
782.283	130.557
782.412	131.196
782.540	132.351
782.668	131.000
782.796	130.216
782.924	131.268
783.052	129.784
783.180	131.825
783.308	129.701
783.437	130.845
783.565	130.278
783.693	131.546
783.821	131.918
783.949	130.041
784.077	127.557
784.205	130.948
784.333	132.000
784.462	131.897
784.590	135.660
784.718	131.588
784.846	129.175
784.974	129.175
785.102	129.619
785.230	131.938
785.358	129.010
785.487	131.309
785.615	128.845
785.743	128.557
785.871	127.577
785.999	130.175
786.127	129.485
786.255	130.598
786.383	128.144
786.512	129.082
786.640	128.402
786.768	131.835
786.896	127.412
787.024	129.948
787.152	126.866
787.280	126.938
787.408	130.794
787.537	128.124
787.665	130.825
787.793	127.887
787.921	131.588
788.049	129.526
788.177	129.742
788.305	130.392
788.433	130.031
788.562	126.247
788.690	128.629
788.818	128.536
788.946	126.866
789.074	125.103
789.202	127.196
789.330	127.608
789.458	128.557
789.587	126.804
789.715	125.165
789.843	126.577
789.971	129.289
790.099	128.515
790.227	124.660
790.355	127.412
790.483	127.701
790.612	127.691
790.740	128.515
790.868	129.588
790.996	129.113
791.124	127.361
791.252	127.443
791.380	129.887
791.508	123.124
791.637	129.031
791.765	125.814
791.893	124.134
792.021	125.742
792.149	126.979
792.277	126.165
792.405	127.021
792.533	126.268
792.662	126.567
792.790	128.000
792.918	128.722
793.046	122.371
793.174	126.247
793.302	127.340
793.430	125.887
793.558	125.979
793.687	125.794
793.815	126.608
793.943	126.155
794.071	123.784
794.199	125.000
794.327	124.041
794.455	125.969
794.583	122.990
794.712	125.526
794.840	123.763
794.968	123.701
795.096	124.464
795.224	124.732
795.352	124.825
795.480	123.052
795.608	124.990
795.737	125.134
795.865	125.216
795.993	124.608
796.121	124.680
796.249	124.474
796.377	121.567
796.505	125.371
796.633	125.825
796.762	124.278
796.890	127.660
797.018	125.000
797.146	122.825
797.274	121.124
797.402	121.412
797.530	122.588
797.658	122.196
797.787	123.629
797.915	122.412
798.043	124.113
798.171	124.526
798.299	120.990
798.427	123.784
798.555	120.773
798.683	121.784
798.812	122.804
798.940	121.526
799.068	122.289
799.196	122.784
799.324	122.918
799.452	121.660
799.580	123.340
799.708	120.247
799.837	122.144
799.965	120.165
800.093	119.629
800.221	122.845
800.349	121.237
800.477	120.474
800.605	120.320
800.733	121.557
800.862	122.381
800.990	122.753
801.118	121.371
801.246	118.155
801.374	119.289
801.502	120.278
801.630	121.577
801.758	121.495
801.887	119.443
802.015	119.619
802.143	119.928
802.271	121.113
802.399	120.474
802.527	121.526
802.655	119.876
802.783	121.299
802.912	119.897
803.040	121.371
803.168	117.093
803.296	121.216
803.424	118.969
803.552	118.845
803.680	118.804
803.808	119.649
803.937	119.722
804.065	121.010
804.193	119.557
804.321	116.722
804.449	118.567
804.577	116.804
804.705	119.969
804.833	118.856
804.962	118.227
805.090	117.742
805.218	118.361
805.346	118.979
805.474	117.918
805.602	120.165
805.730	116.619
805.858	116.897
805.987	119.639
806.115	118.278
806.243	117.309
806.371	116.588
806.499	119.340
806.627	116.969
806.755	118.515
806.883	117.258
807.012	116.938
807.140	116.062
807.268	115.526
807.396	119.845
807.524	118.340
807.652	117.845
807.780	117.608
807.908	116.144
808.037	117.454
808.165	118.546
808.293	116.990
808.421	116.464
808.549	117.186
808.677	115.629
808.805	115.588
808.933	115.928
809.062	115.835
809.190	116.784
809.318	115.165
809.446	115.639
809.574	113.732
809.702	114.216
809.830	113.773
809.958	116.330
810.087	117.144
810.215	117.124
810.343	117.866
810.471	117.464
810.599	114.010
810.727	115.021
810.855	112.649
810.983	117.536
811.112	116.608
811.240	114.546
811.368	116.392
811.496	117.196
811.624	115.866
811.752	113.443
811.880	114.639
812.008	115.866
812.137	114.299
812.265	114.000
812.393	113.794
812.521	113.515
812.649	113.247
812.777	114.918
812.905	113.753
813.033	113.289
813.162	114.588
813.290	114.701
813.418	115.289
813.546	114.897
813.674	114.639
813.802	114.711
813.930	113.258
814.058	113.577
814.187	115.062
814.315	113.134
814.443	114.804
814.571	112.062
814.699	114.649
814.827	114.361
814.955	113.454
815.083	115.021
815.212	112.454
815.340	112.701
815.468	111.010
815.596	111.340
815.724	113.330
815.852	112.722
815.980	112.320
816.108	111.423
816.237	110.814
816.365	113.144
816.493	112.155
816.621	112.474
816.749	112.608
816.877	113.753
817.005	114.021
817.133	113.742
817.262	112.536
817.390	112.072
817.518	113.278
817.646	111.330
817.774	111.856
817.902	113.464
818.030	111.351
818.158	111.763
818.287	111.887
818.415	111.062
818.543	111.155
818.671	111.371
818.799	111.959
818.927	111.588
819.055	110.979
819.183	112.124
819.312	111.103
819.440	111.814
819.568	111.845
819.696	112.021
819.824	112.155
819.952	111.062
820.080	110.660
820.208	110.021
820.337	112.175
820.465	111.175
820.593	111.124
820.721	110.619
820.849	109.701
820.977	109.268
821.105	111.835
821.233	110.361
821.362	110.928
821.490	110.649
821.618	110.969
821.746	109.763
821.874	108.701
822.002	110.155
822.130	110.959
822.258	110.938
822.387	109.000
822.515	109.856
822.643	109.402
822.771	107.557
822.899	109.206
823.027	109.206
823.155	108.443
823.283	109.443
823.412	111.588
823.540	110.062
823.668	109.835
823.796	108.258
823.924	110.557
824.052	109.928
824.180	107.887
824.308	108.526
824.437	109.165
824.565	108.907
824.693	108.876
824.821	108.732
824.949	109.639
825.077	108.660
825.205	106.412
825.333	108.485
825.462	108.464
825.590	108.649
825.718	107.000
825.846	108.155
825.974	108.031
826.102	109.010
826.230	107.557
826.358	107.361
826.487	107.505
826.615	106.495
826.743	107.804
826.871	108.763
826.999	109.546
827.127	110.124
827.255	107.866
827.383	107.392
827.512	108.505
827.640	108.340
827.768	107.629
827.896	108.588
828.024	106.608
828.152	106.093
828.280	107.753
828.408	107.557
828.537	107.876
828.665	107.742
828.793	107.691
828.921	107.443
829.049	107.206
829.177	107.639
829.305	107.619
829.433	105.588
829.562	106.340
829.690	108.113
829.818	107.309
829.946	106.691
830.074	107.598
830.202	107.969
830.330	106.711
830.458	107.021
830.587	106.804
830.715	106.660
830.843	106.567
830.971	107.175
831.099	107.546
831.227	107.979
831.355	107.845
831.483	107.948
831.612	107.175
831.740	108.237
831.868	107.485
831.996	107.485
832.124	106.990
832.252	106.804
832.380	106.113
832.508	105.866
832.637	106.062
832.765	105.670
832.893	106.402
833.021	106.959
833.149	105.443
833.277	107.330
833.405	107.227
833.533	104.629
833.662	105.680
833.790	105.887
833.918	106.330
834.046	105.845
834.174	106.907
834.302	107.299
834.430	105.010
834.558	106.186
834.687	105.928
834.815	104.433
834.943	104.680
835.071	106.041
835.199	106.351
835.327	106.454
835.455	106.495
835.583	105.732
835.712	104.742
835.840	105.773
835.968	105.433
836.096	105.649
836.224	106.031
836.352	107.072
836.480	105.237
836.608	104.299
836.737	106.402
836.865	107.124
836.993	105.866
837.121	106.289
837.249	105.866
837.377	107.196
837.505	105.464
837.633	104.485
837.762	104.907
837.890	104.113
838.018	103.381
838.146	105.227
838.274	104.557
838.402	106.340
838.530	104.278
838.658	104.918
838.787	104.814
838.915	107.134
839.043	105.124
839.171	104.763
839.299	104.175
839.427	103.742
839.555	104.619
839.683	105.361
839.812	103.907
839.940	104.423
840.068	104.804
840.196	106.134
840.324	104.907
840.452	104.639
840.580	104.134
840.708	103.691
840.837	103.969
840.965	105.969
841.093	104.701
841.221	105.876
841.349	105.505
841.477	105.175
841.605	104.062
841.733	102.773
841.862	105.165
841.990	103.701
842.118	104.680
842.246	103.598
842.374	104.402
842.502	104.773
842.630	103.381
842.758	103.804
842.887	103.237
843.015	103.351
843.143	104.175
843.271	104.835
843.399	103.732
843.527	102.722
843.655	103.835
843.783	103.381
843.912	103.485
844.040	104.474
844.168	104.887
844.296	105.155
844.424	104.979
844.552	105.093
844.680	103.206
844.808	103.856
844.937	102.485
845.065	102.773
845.193	103.268
845.321	103.031
845.449	103.010
845.577	103.175
845.705	103.206
845.833	104.186
845.962	103.454
846.090	102.247
846.218	102.588
846.346	103.412
846.474	102.093
846.602	103.474
846.730	103.175
846.858	103.505
846.987	101.907
847.115	103.835
847.243	103.392
847.371	102.918
847.499	100.866
847.627	102.897
847.755	101.485
847.883	100.825
848.012	101.918
848.140	102.588
848.268	102.732
848.396	102.227
848.524	102.753
848.652	102.526
848.780	101.144
848.908	104.196
849.037	102.144
849.165	102.711
849.293	101.464
849.421	102.103
849.549	102.258
849.677	102.423
849.805	102.722
849.933	103.711
850.062	103.237
850.190	101.866
850.318	101.278
850.446	103.660
850.574	102.000
850.702	102.443
850.830	102.082
850.958	102.454
851.087	103.289
851.215	102.979
851.343	101.990
851.471	100.825
851.599	101.938
851.727	101.495
851.855	101.124
851.983	101.371
852.112	102.031
852.240	102.062
852.368	103.402
852.496	101.649
852.624	101.670
852.752	100.464
852.880	102.000
853.008	102.392
853.137	102.588
853.265	101.959
853.393	102.392
853.521	100.093
853.649	101.804
853.777	101.082
853.905	102.072
854.033	100.485
854.162	101.351
854.290	101.485
854.418	99.979
854.546	100.289
854.674	101.495
854.802	99.753
854.930	99.876
855.058	101.474
855.187	102.464
855.315	101.680
855.443	102.701
855.571	101.546
855.699	102.825
855.827	99.742
855.955	101.021
856.083	101.216
856.212	102.165
856.340	102.000
856.468	100.340
856.596	100.948
856.724	102.660
856.852	102.691
856.980	101.000
857.108	101.103
857.237	101.412
857.365	101.155
857.493	101.392
857.621	101.165
857.749	100.320
857.877	100.196
858.005	101.515
858.133	100.237
858.262	100.784
858.390	101.546
858.518	99.165
858.646	100.351
858.774	100.536
858.902	101.845
859.030	101.948
859.158	100.948
859.287	99.515
859.415	99.814
859.543	100.237
859.671	101.113
859.799	101.567
859.927	101.701
860.055	101.423
860.183	100.299
860.312	100.814
860.440	100.330
860.568	101.753
860.696	100.103
860.824	99.979
860.952	99.876
861.080	100.495
861.208	100.887
861.337	99.557
861.465	99.680
861.593	101.216
861.721	101.134
861.849	99.485
861.977	99.000
862.105	99.938
862.233	99.918
862.362	101.165
862.490	101.567
862.618	101.557
862.746	100.155
862.874	100.464
863.002	100.660
863.130	100.289
863.258	100.732
863.387	100.979
863.515	99.711
863.643	99.144
863.771	100.412
863.899	100.082
864.027	101.588
864.155	101.031
864.283	100.557
864.412	99.897
864.540	101.237
864.668	99.887
864.796	100.443
864.924	100.577
865.052	99.691
865.180	100.206
865.308	99.247
865.437	100.113
865.565	99.237
865.693	99.216
865.821	99.021
865.949	100.928
866.077	101.753
866.205	99.474
866.333	100.113
866.462	99.206
866.590	99.835
866.718	99.660
866.846	99.887
866.974	100.412
867.102	99.845
867.230	98.588
867.358	99.577
867.487	99.546
867.615	99.309
867.743	100.216
867.871	99.979
867.999	100.361
868.127	99.866
868.255	100.979
868.383	100.907
868.512	101.021
868.640	99.887
868.768	102.392
868.896	99.474
869.024	99.814
869.152	99.412
869.280	100.392
869.408	101.041
869.537	99.031
869.665	99.835
869.793	99.052
869.921	100.680
870.049	100.969
870.177	100.072
870.305	100.505
870.433	100.155
870.562	99.423
870.690	99.031
870.818	100.381
870.946	100.876
871.074	101.052
871.202	98.948
871.330	100.753
871.458	100.423
871.587	100.433
871.715	98.598
871.843	100.887
871.971	100.691
872.099	99.155
872.227	99.567
872.355	99.464
872.483	98.454
872.612	100.876
872.740	99.887
872.868	99.835
872.996	99.031
873.124	100.990
873.252	99.948
873.380	99.289
873.508	101.825
873.637	100.814
873.765	99.237
873.893	99.423
874.021	100.598
874.149	99.588
874.277	99.000
874.405	99.412
874.533	100.928
874.662	99.309
874.790	99.216
874.918	100.454
875.046	99.031
875.174	99.289
875.302	99.866
875.430	100.330
875.558	99.680
875.687	99.474
875.815	99.742
875.943	98.969
876.071	101.289
876.199	101.907
876.327	99.680
876.455	101.423
876.583	100.423
876.712	100.371
876.840	98.722
876.968	99.660
877.096	101.155
877.224	100.299
877.352	99.000
877.480	99.639
877.608	99.938
877.737	99.814
877.865	97.629
877.993	99.186
878.121	98.876
878.249	100.320
878.377	99.330
878.505	99.134
878.633	100.309
878.762	100.103
878.890	100.443
879.018	99.784
879.146	100.351
879.274	99.711
879.402	100.278
879.530	98.649
879.658	99.546
879.787	99.701
879.915	98.289
880.043	100.082
880.171	99.144
880.299	98.835
880.427	99.701
880.555	100.361
880.683	99.753
880.812	99.753
880.940	99.247
881.068	100.062
881.196	99.959
881.324	99.897
881.452	100.103
881.580	99.454
881.708	98.567
881.837	99.320
881.965	99.062
882.093	99.711
882.221	99.598
882.349	99.247
882.477	99.649
882.605	100.443
882.733	98.670
882.862	99.495
882.990	98.814
883.118	99.763
883.246	99.567
883.374	100.320
883.502	98.052
883.630	101.330
883.758	100.134
883.887	99.216
884.015	100.887
884.143	100.371
884.271	99.897
884.399	99.619
884.527	99.299
884.655	100.330
884.783	100.093
884.912	99.165
885.040	99.454
885.168	99.402
885.296	99.227
885.424	99.196
885.552	99.237
885.680	99.515
885.808	98.495
885.937	99.742
886.065	98.165
886.193	98.010
886.321	100.082
886.449	100.175
886.577	99.567
886.705	98.969
886.833	100.175
886.962	100.959
887.090	100.412
887.218	99.856
887.346	97.928
887.474	100.567
887.602	100.072
887.730	97.866
887.858	98.990
887.987	99.845
888.115	99.464
888.243	99.897
888.371	99.598
888.499	99.979
888.627	99.196
888.755	99.536
888.883	99.918
889.012	98.990
889.140	98.897
889.268	99.155
889.396	99.773
889.524	99.351
889.652	98.660
889.780	98.938
889.908	99.433
890.037	99.196
890.165	99.155
890.293	99.887
890.421	100.258
890.549	99.536
890.677	98.361
890.805	100.979
890.933	99.227
891.062	99.392
891.190	99.216
891.318	101.495
891.446	101.206
891.574	99.330
891.702	97.825
891.830	99.670
891.958	99.351
892.087	100.330
892.215	99.835
892.343	100.680
892.471	100.124
892.599	98.959
892.727	100.629
892.855	100.309
892.983	100.268
893.112	99.402
893.240	100.412
893.368	100.082
893.496	101.062
893.624	99.804
893.752	100.763
893.880	98.567
894.008	99.969
894.137	99.361
894.265	100.588
894.393	99.526
894.521	98.691
894.649	100.546
894.777	99.526
894.905	99.361
895.033	101.134
895.162	101.258
895.290	99.485
895.418	100.670
895.546	100.959
895.674	99.423
895.802	99.196
895.930	98.825
896.058	98.876
896.187	101.052
896.315	100.505
896.443	100.247
896.571	101.216
896.699	100.216
896.827	99.598
896.955	98.557
897.083	100.392
897.212	101.608
897.340	99.454
897.468	100.814
897.596	99.619
897.724	99.196
897.852	100.021
897.980	98.773
898.108	99.196
898.237	98.691
898.365	100.732
898.493	99.969
898.621	100.268
898.749	99.670
898.877	99.794
899.005	99.897
899.133	99.825
899.262	99.299
899.390	99.309
899.518	99.505
899.646	100.289
899.774	101.227
899.902	100.330
900.030	99.639
900.158	99.371
900.287	99.351
900.415	101.381
900.543	101.010
900.671	101.402
900.799	100.598
900.927	99.907
901.055	98.402
901.183	99.577
901.312	100.144
901.440	101.742
901.568	101.351
901.696	100.227
901.824	100.330
901.952	101.577
902.080	99.918
902.208	98.866
902.337	99.680
902.465	100.433
902.593	101.134
902.721	101.206
902.849	100.866
902.977	99.196
903.105	100.103
903.233	100.515
903.362	100.907
903.490	99.124
903.618	99.588
903.746	98.381
903.874	100.649
904.002	101.773
904.130	100.546
904.258	99.144
904.387	99.701
904.515	98.918
904.643	100.732
904.771	101.072
904.899	100.010
905.027	99.959
905.155	99.278
905.283	99.237
905.412	100.237
905.540	99.330
905.668	99.206
905.796	99.134
905.924	101.134
906.052	99.835
906.180	101.031
906.308	99.289
906.437	97.959
906.565	100.722
906.693	99.175
906.821	98.505
906.949	98.856
907.077	100.165
907.205	101.175
907.333	99.402
907.462	101.505
907.590	100.588
907.718	100.000
907.846	99.412
907.974	101.402
908.102	100.515
908.230	99.804
908.358	98.845
908.487	98.814
908.615	99.515
908.743	100.536
908.871	100.990
908.999	100.423
909.127	99.938
909.255	99.845
909.383	99.052
909.512	100.948
909.640	101.412
909.768	101.454
909.896	100.546
910.024	99.598
910.152	100.495
910.280	99.505
910.408	100.598
910.537	101.134
910.665	100.320
910.793	100.443
910.921	100.237
911.049	101.041
911.177	98.701
911.305	99.361
911.433	101.227
911.562	101.309
911.690	101.196
911.818	99.825
911.946	101.227
912.074	101.320
912.202	99.948
912.330	101.278
912.458	101.392
912.587	100.216
912.715	101.000
912.843	100.897
912.971	100.990
913.099	101.124
913.227	101.691
913.355	101.227
913.483	101.196
913.612	100.928
913.740	100.619
913.868	100.072
