sample7u_at_750.00nm_cut_at_1060.50Y_01.dat
19.06.2023
11:10:35
cut middle at Y: 1060.50
top cursor: 1109 down cursor: 1012 mean of: 97 lines , 2560 datapoints
wavelength(nm)	intensity[arb. units]
585.996	1996.124
586.124	1922.979
586.252	1911.144
586.380	1915.186
586.508	1920.289
586.637	1921.041
586.765	1934.196
586.893	1933.340
587.021	1925.866
587.149	1944.722
587.277	1940.474
587.405	1947.402
587.533	1932.340
587.662	1947.711
587.790	1954.660
587.918	1949.227
588.046	1956.577
588.174	1957.247
588.302	1963.711
588.430	1955.670
588.558	1952.773
588.687	1975.845
588.815	1984.309
588.943	1994.165
589.071	1971.072
589.199	1983.546
589.327	1981.474
589.455	1968.773
589.583	1990.309
589.712	1976.041
589.840	1987.804
589.968	1974.206
590.096	1991.464
590.224	1993.000
590.352	2001.814
590.480	1991.196
590.608	1994.340
590.737	1983.629
590.865	1996.082
590.993	1991.773
591.121	2005.227
591.249	2016.732
591.377	1996.433
591.505	2001.763
591.633	2008.402
591.762	2016.722
591.890	2017.608
592.018	2018.722
592.146	2010.526
592.274	2039.485
592.402	2019.732
592.530	2017.608
592.658	2022.907
592.787	2028.546
592.915	2035.165
593.043	2044.402
593.171	2033.289
593.299	2051.423
593.427	2042.763
593.555	2056.835
593.683	2045.649
593.812	2062.186
593.940	2065.361
594.068	2060.423
594.196	2094.093
594.324	2065.289
594.452	2100.794
594.580	2077.670
594.708	2096.608
594.837	2110.206
594.965	2129.577
595.093	2102.938
595.221	2115.361
595.349	2126.021
595.477	2128.093
595.605	2124.557
595.733	2155.124
595.862	2145.948
595.990	2146.959
596.118	2151.804
596.246	2161.412
596.374	2154.041
596.502	2178.371
596.630	2176.567
596.758	2164.227
596.887	2183.969
597.015	2196.670
597.143	2162.887
597.271	2176.454
597.399	2186.464
597.527	2201.268
597.655	2198.567
597.783	2192.299
597.912	2195.691
598.040	2199.753
598.168	2197.371
598.296	2195.268
598.424	2186.433
598.552	2190.753
598.680	2177.155
598.808	2187.515
598.937	2198.278
599.065	2205.804
599.193	2197.082
599.321	2163.515
599.449	2199.557
599.577	2202.474
599.705	2197.258
599.833	2196.093
599.962	2186.680
600.090	2188.010
600.218	2194.948
600.346	2221.381
600.474	2202.938
600.602	2203.361
600.730	2195.361
600.858	2219.309
600.987	2215.443
601.115	2200.278
601.243	2208.619
601.371	2220.598
601.499	2235.247
601.627	2228.680
601.755	2240.918
601.883	2237.588
602.012	2255.680
602.140	2245.485
602.268	2256.969
602.396	2253.691
602.524	2265.134
602.652	2281.258
602.780	2282.567
602.908	2289.000
603.037	2299.866
603.165	2302.979
603.293	2320.330
603.421	2303.392
603.549	2322.485
603.677	2339.722
603.805	2328.969
603.933	2356.856
604.062	2358.268
604.190	2357.237
604.318	2357.959
604.446	2385.289
604.574	2383.897
604.702	2394.546
604.830	2392.062
604.958	2403.093
605.087	2421.546
605.215	2421.979
605.343	2423.381
605.471	2433.577
605.599	2444.258
605.727	2437.113
605.855	2447.701
605.983	2443.402
606.112	2466.546
606.240	2479.639
606.368	2465.680
606.496	2509.485
606.624	2469.175
606.752	2475.278
606.880	2510.515
607.008	2572.505
607.137	2528.732
607.265	2494.175
607.393	2500.670
607.521	2555.485
607.649	2491.299
607.777	2495.392
607.905	2525.701
608.033	2512.144
608.162	2487.103
608.290	2525.196
608.418	2519.722
608.546	2521.928
608.674	2540.536
608.802	2509.814
608.930	2514.412
609.058	2506.742
609.187	2534.237
609.315	2535.361
609.443	2498.856
609.571	2521.711
609.699	2488.433
609.827	2508.907
609.955	2528.155
610.083	2500.113
610.212	2500.887
610.340	2509.485
610.468	2536.103
610.596	2548.268
610.724	2545.443
610.852	2510.629
610.980	2528.577
611.108	2560.412
611.237	2511.186
611.365	2524.742
611.493	2519.062
611.621	2528.907
611.749	2534.959
611.877	2539.577
612.005	2555.196
612.133	2569.938
612.262	2553.701
612.390	2560.660
612.518	2580.381
612.646	2640.784
612.774	2576.031
612.902	2585.351
613.030	2576.062
613.158	2619.041
613.287	2593.351
613.415	2588.082
613.543	2596.392
613.671	2605.835
613.799	2603.392
613.927	2639.526
614.055	2625.649
614.183	2743.268
614.312	2630.969
614.440	2715.113
614.568	2644.505
614.696	2633.990
614.824	2763.124
614.952	2685.887
615.080	2641.412
615.208	2714.660
615.337	2710.289
615.465	2699.691
615.593	2703.124
615.721	2738.629
615.849	2729.577
615.977	2724.309
616.105	2754.897
616.233	2722.515
616.362	2779.990
616.490	2715.639
616.618	2694.990
616.746	2799.680
616.874	2792.103
617.002	2760.134
617.130	2791.041
617.258	2857.876
617.387	2750.495
617.515	2727.505
617.643	2750.649
617.771	2788.443
617.899	2779.876
618.027	2746.835
618.155	2863.412
618.283	2744.948
618.412	2781.134
618.540	2854.876
618.668	2789.247
618.796	2771.990
618.924	2868.907
619.052	2777.454
619.180	2778.639
619.308	2785.753
619.437	2826.691
619.565	2818.258
619.693	2784.144
619.821	2819.794
619.949	2799.629
620.077	2831.856
620.205	2835.330
620.333	2846.433
620.462	2840.165
620.590	2877.371
620.718	2821.660
620.846	2892.536
620.974	2869.361
621.102	2872.753
621.230	2825.175
621.358	2941.835
621.487	2807.887
621.615	2871.804
621.743	2839.814
621.871	2880.804
621.999	2896.196
622.127	2851.701
622.255	2834.175
622.383	2871.134
622.512	2861.464
622.640	2976.010
622.768	2856.289
622.896	2864.433
623.024	2871.247
623.152	2931.670
623.280	2936.948
623.408	2832.835
623.537	2870.000
623.665	2829.062
623.793	2883.268
623.921	2874.598
624.049	2851.134
624.177	2872.371
624.305	2901.031
624.433	2897.938
624.562	2870.320
624.690	2913.299
624.818	2914.113
624.946	3019.103
625.074	2890.804
625.202	2843.567
625.330	2847.103
625.458	2938.196
625.587	2875.330
625.715	2921.959
625.843	2979.443
625.971	2895.371
626.099	2888.670
626.227	2876.072
626.355	2872.845
626.483	2976.340
626.612	2864.144
626.740	2865.691
626.868	2916.216
626.996	2875.845
627.124	2879.505
627.252	2857.536
627.380	2887.433
627.508	2889.062
627.637	2897.196
627.765	2886.536
627.893	2905.072
628.021	2899.732
628.149	2884.608
628.277	2920.196
628.405	2961.258
628.533	2892.825
628.662	2954.031
628.790	2949.299
628.918	2920.670
629.046	2963.216
629.174	2923.361
629.302	3018.309
629.430	2907.175
629.558	2963.010
629.687	2943.340
629.815	2957.206
629.943	3002.474
630.071	2983.959
630.199	2970.268
630.327	2970.155
630.455	2949.907
630.583	3006.948
630.712	3002.464
630.840	2982.454
630.968	3002.649
631.096	2968.206
631.224	2981.608
631.352	3016.454
631.480	3002.000
631.608	3048.423
631.737	3047.505
631.865	3178.629
631.993	3015.577
632.121	3124.856
632.249	3081.381
632.377	3065.742
632.505	3034.753
632.633	2978.825
632.762	3041.268
632.890	3096.165
633.018	3001.835
633.146	3041.155
633.274	3052.619
633.402	3037.742
633.530	2964.629
633.658	3128.041
633.787	2981.052
633.915	3040.794
634.043	3014.722
634.171	3002.567
634.299	3042.113
634.427	3088.722
634.555	3105.876
634.683	3009.237
634.812	3006.505
634.940	3004.124
635.068	2973.598
635.196	3000.093
635.324	3003.990
635.452	3065.309
635.580	3009.835
635.708	2956.639
635.837	3023.649
635.965	3013.794
636.093	2976.103
636.221	2958.433
636.349	3009.309
636.477	2932.567
636.605	3112.423
636.733	2912.206
636.862	2921.979
636.990	2988.010
637.118	2988.680
637.246	2979.897
637.374	2981.227
637.502	2930.093
637.630	2905.351
637.758	2952.918
637.887	2881.526
638.015	2948.351
638.143	2931.619
638.271	2913.979
638.399	2921.247
638.527	2884.753
638.655	2900.577
638.783	3021.289
638.912	2944.753
639.040	2928.495
639.168	2938.330
639.296	2881.247
639.424	3006.876
639.552	2874.289
639.680	2903.526
639.808	2930.577
639.937	2848.485
640.065	2862.567
640.193	2939.732
640.321	2882.124
640.449	2927.041
640.577	2925.660
640.705	2880.268
640.833	2963.041
640.962	2889.000
641.090	2857.093
641.218	2846.557
641.346	2873.649
641.474	2896.278
641.602	2866.959
641.730	2867.237
641.858	2846.505
641.987	2890.227
642.115	2877.969
642.243	2889.897
642.371	2918.278
642.499	2878.670
642.627	2903.763
642.755	2904.278
642.883	2926.237
643.012	2871.196
643.140	2843.907
643.268	2875.959
643.396	2878.144
643.524	2976.608
643.652	2888.165
643.780	2872.124
643.908	2869.412
644.037	2987.402
644.165	2884.144
644.293	2921.588
644.421	2837.196
644.549	2925.918
644.677	2888.289
644.805	2926.155
644.933	2869.649
645.062	2862.351
645.190	2912.072
645.318	2968.443
645.446	2892.433
645.574	2870.247
645.702	2886.629
645.830	3012.979
645.958	2846.784
646.087	2994.515
646.215	2848.918
646.343	3004.330
646.471	2957.876
646.599	2921.711
646.727	2849.289
646.855	2856.206
646.983	2890.258
647.112	2850.144
647.240	2979.825
647.368	2870.608
647.496	2884.216
647.624	2812.526
647.752	2810.216
647.880	2821.701
648.008	2822.000
648.137	2813.629
648.265	2791.742
648.393	2835.000
648.521	2821.474
648.649	2844.485
648.777	2822.340
648.905	2770.825
649.033	2812.608
649.162	2800.629
649.290	2778.763
649.418	2823.629
649.546	2810.134
649.674	2800.804
649.802	2795.701
649.930	2875.990
650.058	2716.938
650.187	2760.412
650.315	2728.897
650.443	2791.320
650.571	2739.072
650.699	2718.959
650.827	2691.041
650.955	2722.361
651.083	2719.113
651.212	2753.103
651.340	2757.732
651.468	2716.969
651.596	2699.258
651.724	2677.113
651.852	2683.691
651.980	2658.031
652.108	2740.845
652.237	2706.021
652.365	2723.495
652.493	2659.402
652.621	2652.351
652.749	2699.423
652.877	2626.196
653.005	2653.381
653.133	2621.505
653.262	2651.526
653.390	2603.711
653.518	2702.474
653.646	2618.361
653.774	2734.536
653.902	2630.763
654.030	2580.072
654.158	2595.402
654.287	2579.361
654.415	2604.608
654.543	2591.969
654.671	2608.763
654.799	2577.505
654.927	2561.969
655.055	2544.082
655.183	2556.454
655.312	2558.433
655.440	2546.320
655.568	2527.423
655.696	2585.113
655.824	2585.082
655.952	2549.814
656.080	2514.794
656.208	2611.660
656.337	2529.474
656.465	2530.072
656.593	2535.897
656.721	2514.711
656.849	2515.278
656.977	2501.000
657.105	2487.835
657.233	2485.907
657.362	2486.711
657.490	2471.351
657.618	2468.639
657.746	2474.660
657.874	2448.505
658.002	2452.670
658.130	2463.392
658.258	2441.278
658.387	2455.433
658.515	2415.247
658.643	2440.464
658.771	2430.948
658.899	2426.763
659.027	2421.320
659.155	2413.454
659.283	2416.732
659.412	2390.113
659.540	2399.392
659.668	2388.536
659.796	2375.701
659.924	2392.309
660.052	2376.876
660.180	2340.196
660.308	2372.505
660.437	2345.670
660.565	2350.825
660.693	2333.443
660.821	2336.649
660.949	2347.464
661.077	2331.093
661.205	2329.835
661.333	2312.309
661.462	2317.557
661.590	2316.227
661.718	2299.918
661.846	2289.887
661.974	2299.165
662.102	2302.660
662.230	2283.526
662.358	2272.753
662.487	2281.206
662.615	2262.093
662.743	2267.103
662.871	2277.732
662.999	2263.474
663.127	2263.948
663.255	2260.175
663.383	2269.557
663.512	2256.505
663.640	2258.887
663.768	2236.443
663.896	2232.928
664.024	2232.856
664.152	2230.577
664.280	2236.763
664.408	2205.134
664.537	2215.278
664.665	2224.433
664.793	2196.041
664.921	2187.021
665.049	2202.670
665.177	2205.423
665.305	2185.485
665.433	2188.165
665.562	2192.639
665.690	2187.876
665.818	2180.381
665.946	2175.134
666.074	2166.969
666.202	2166.371
666.330	2152.258
666.458	2158.629
666.587	2164.660
666.715	2175.485
666.843	2160.320
666.971	2136.691
667.099	2156.299
667.227	2159.495
667.355	2145.887
667.483	2128.216
667.612	2131.340
667.740	2127.588
667.868	2134.711
667.996	2124.969
668.124	2123.464
668.252	2119.959
668.380	2106.134
668.508	2121.454
668.637	2096.629
668.765	2107.608
668.893	2090.773
669.021	2088.990
669.149	2084.165
669.277	2074.361
669.405	2061.732
669.533	2071.268
669.662	2062.031
669.790	2062.320
669.918	2060.320
670.046	2035.907
670.174	2041.124
670.302	2041.804
670.430	2015.052
670.558	2015.763
670.687	2028.742
670.815	2009.124
670.943	2018.103
671.071	2001.608
671.199	2005.784
671.327	1986.897
671.455	1979.206
671.583	1987.794
671.712	1968.309
671.840	1953.959
671.968	1949.907
672.096	1949.392
672.224	1941.072
672.352	1942.845
672.480	1937.258
672.608	1928.711
672.737	1919.381
672.865	1908.567
672.993	1893.598
673.121	1905.485
673.249	1903.258
673.377	1881.691
673.505	1872.041
673.633	1857.515
673.762	1866.340
673.890	1864.237
674.018	1849.124
674.146	1845.804
674.274	1839.845
674.402	1827.742
674.530	1825.897
674.658	1831.526
674.787	1807.918
674.915	1800.979
675.043	1791.443
675.171	1798.299
675.299	1798.495
675.427	1782.505
675.555	1772.526
675.683	1759.928
675.812	1762.990
675.940	1730.247
676.068	1755.763
676.196	1731.485
676.324	1741.814
676.452	1733.619
676.580	1719.175
676.708	1712.299
676.837	1722.443
676.965	1698.186
677.093	1701.557
677.221	1690.309
677.349	1669.763
677.477	1678.206
677.605	1665.804
677.733	1677.474
677.862	1659.485
677.990	1665.732
678.118	1645.598
678.246	1639.052
678.374	1627.237
678.502	1638.412
678.630	1626.113
678.758	1627.031
678.887	1618.691
679.015	1619.278
679.143	1606.330
679.271	1615.402
679.399	1590.887
679.527	1574.268
679.655	1587.907
679.783	1570.392
679.912	1575.649
680.040	1569.773
680.168	1560.103
680.296	1551.289
680.424	1563.165
680.552	1550.412
680.680	1542.804
680.808	1540.546
680.937	1527.258
681.065	1533.804
681.193	1513.948
681.321	1527.732
681.449	1514.629
681.577	1513.680
681.705	1502.165
681.833	1501.186
681.962	1491.897
682.090	1500.505
682.218	1497.784
682.346	1499.577
682.474	1477.773
682.602	1494.588
682.730	1474.866
682.858	1471.670
682.987	1479.495
683.115	1457.402
683.243	1458.289
683.371	1466.237
683.499	1458.907
683.627	1457.938
683.755	1449.876
683.883	1441.175
684.012	1440.433
684.140	1432.897
684.268	1436.186
684.396	1427.402
684.524	1434.814
684.652	1432.144
684.780	1437.670
684.908	1415.103
685.037	1415.309
685.165	1419.464
685.293	1410.722
685.421	1404.701
685.549	1395.907
685.677	1403.258
685.805	1392.660
685.933	1403.093
686.062	1384.680
686.190	1390.629
686.318	1396.371
686.446	1383.711
686.574	1377.959
686.702	1387.814
686.830	1372.598
686.958	1372.196
687.087	1376.742
687.215	1354.711
687.343	1366.649
687.471	1359.351
687.599	1355.907
687.727	1346.443
687.855	1342.804
687.983	1341.856
688.112	1342.062
688.240	1332.629
688.368	1339.608
688.496	1335.268
688.624	1331.598
688.752	1322.577
688.880	1321.825
689.008	1314.567
689.137	1316.278
689.265	1305.825
689.393	1292.619
689.521	1293.196
689.649	1298.278
689.777	1292.412
689.905	1290.990
690.033	1281.598
690.162	1272.155
690.290	1264.361
690.418	1264.021
690.546	1268.495
690.674	1262.691
690.802	1259.237
690.930	1260.938
691.058	1250.041
691.187	1236.619
691.315	1247.062
691.443	1240.969
691.571	1231.526
691.699	1218.639
691.827	1218.742
691.955	1216.402
692.083	1215.010
692.212	1204.588
692.340	1206.866
692.468	1198.454
692.596	1191.680
692.724	1181.309
692.852	1181.835
692.980	1186.155
693.108	1182.289
693.237	1168.052
693.365	1175.103
693.493	1167.536
693.621	1150.454
693.749	1159.423
693.877	1152.351
694.005	1143.134
694.133	1155.052
694.262	1143.052
694.390	1130.773
694.518	1123.412
694.646	1131.526
694.774	1130.134
694.902	1113.103
695.030	1135.299
695.158	1105.701
695.287	1107.361
695.415	1108.495
695.543	1100.619
695.671	1099.443
695.799	1084.577
695.927	1087.309
696.055	1080.794
696.183	1090.979
696.312	1085.041
696.440	1083.567
696.568	1068.124
696.696	1066.000
696.824	1065.907
696.952	1068.371
697.080	1052.309
697.208	1064.701
697.337	1043.031
697.465	1043.505
697.593	1041.773
697.721	1037.062
697.849	1037.722
697.977	1036.485
698.105	1025.474
698.233	1027.649
698.362	1012.918
698.490	1012.814
698.618	1017.619
698.746	1008.701
698.874	1010.423
699.002	1009.928
699.130	999.278
699.258	1009.454
699.387	995.526
699.515	989.619
699.643	1002.990
699.771	977.577
699.899	975.907
700.027	973.876
700.155	971.763
700.283	967.959
700.412	967.598
700.540	964.206
700.668	962.371
700.796	962.722
700.924	945.814
701.052	949.124
701.180	943.227
701.308	936.165
701.437	932.866
701.565	929.433
701.693	927.948
701.821	924.309
701.949	924.454
702.077	909.639
702.205	914.031
702.333	906.753
702.462	905.876
702.590	904.412
702.718	899.763
702.846	895.866
702.974	891.485
703.102	890.856
703.230	888.918
703.358	870.474
703.487	877.268
703.615	868.041
703.743	861.546
703.871	859.845
703.999	857.227
704.127	850.680
704.255	848.784
704.383	841.928
704.512	838.082
704.640	838.784
704.768	833.052
704.896	822.959
705.024	820.485
705.152	822.546
705.280	828.093
705.408	808.309
705.537	810.567
705.665	810.825
705.793	811.814
705.921	799.763
706.049	801.412
706.177	786.835
706.305	794.546
706.433	790.887
706.562	789.237
706.690	774.340
706.818	776.443
706.946	779.742
707.074	771.835
707.202	761.928
707.330	761.701
707.458	766.464
707.587	750.031
707.715	755.876
707.843	754.392
707.971	746.320
708.099	753.134
708.227	742.186
708.355	736.680
708.483	733.031
708.612	739.897
708.740	740.247
708.868	723.412
708.996	729.072
709.124	719.330
709.252	720.289
709.380	713.031
709.508	712.969
709.637	714.227
709.765	708.876
709.893	699.711
710.021	708.732
710.149	704.835
710.277	700.907
710.405	698.794
710.533	696.124
710.662	692.825
710.790	692.619
710.918	686.155
711.046	681.433
711.174	689.660
711.302	681.237
711.430	678.990
711.558	679.701
711.687	669.701
711.815	669.670
711.943	669.918
712.071	668.773
712.199	662.680
712.327	660.309
712.455	661.186
712.583	662.526
712.712	660.340
712.840	652.959
712.968	648.278
713.096	649.206
713.224	645.990
713.352	642.515
713.480	639.165
713.608	647.299
713.737	638.753
713.865	632.887
713.993	636.794
714.121	628.639
714.249	633.959
714.377	630.804
714.505	625.443
714.633	625.845
714.762	621.289
714.890	622.371
715.018	619.557
715.146	613.546
715.274	617.010
715.402	609.567
715.530	614.814
715.658	604.155
715.787	611.021
715.915	604.124
716.043	602.082
716.171	604.289
716.299	604.711
716.427	605.268
716.555	595.969
716.683	591.938
716.812	593.474
716.940	592.804
717.068	588.052
717.196	586.371
717.324	580.021
717.452	590.412
717.580	579.381
717.708	577.928
717.837	572.753
717.965	572.856
718.093	576.237
718.221	564.268
718.349	572.443
718.477	569.557
718.605	559.278
718.733	565.237
718.862	556.598
718.990	553.990
719.118	557.763
719.246	548.948
719.374	554.649
719.502	555.928
719.630	550.206
719.758	544.515
719.887	550.887
720.015	551.680
720.143	533.062
720.271	537.247
720.399	537.897
720.527	531.608
720.655	531.093
720.783	532.557
720.912	529.567
721.040	530.691
721.168	525.072
721.296	522.598
721.424	521.814
721.552	521.742
721.680	521.454
721.808	517.969
721.937	511.412
722.065	508.371
722.193	505.897
722.321	509.866
722.449	504.948
722.577	503.124
722.705	500.031
722.833	501.505
722.962	499.464
723.090	491.598
723.218	488.021
723.346	490.371
723.474	489.505
723.602	483.495
723.730	483.227
723.858	479.330
723.987	482.753
724.115	471.804
724.243	473.392
724.371	480.928
724.499	475.598
724.627	471.515
724.755	470.433
724.883	472.000
725.012	468.052
725.140	458.732
725.268	460.381
725.396	456.464
725.524	458.464
725.652	455.670
725.780	452.660
725.908	453.959
726.037	447.691
726.165	447.330
726.293	444.701
726.421	446.031
726.549	444.113
726.677	439.619
726.805	445.845
726.933	434.515
727.062	436.804
727.190	432.072
727.318	437.144
727.446	431.072
727.574	438.165
727.702	431.082
727.830	429.639
727.958	425.907
728.087	424.443
728.215	421.505
728.343	419.052
728.471	422.371
728.599	420.072
728.727	420.567
728.855	420.948
728.983	418.309
729.112	417.959
729.240	415.155
729.368	408.773
729.496	414.299
729.624	412.041
729.752	407.784
729.880	401.196
730.008	401.433
730.137	403.536
730.265	403.010
730.393	404.299
730.521	397.289
730.649	395.258
730.777	393.660
730.905	391.402
731.033	394.649
731.162	394.814
731.290	390.918
731.418	389.918
731.546	393.515
731.674	390.649
731.802	382.608
731.930	388.608
732.058	381.845
732.187	385.258
732.315	381.062
732.443	382.856
732.571	377.907
732.699	379.062
732.827	375.866
732.955	375.680
733.083	375.216
733.212	370.381
733.340	376.371
733.468	373.856
733.596	370.845
733.724	368.557
733.852	368.299
733.980	372.567
734.108	373.454
734.237	364.464
734.365	365.990
734.493	366.062
734.621	360.381
734.749	368.093
734.877	358.320
735.005	361.608
735.133	359.546
735.262	361.155
735.390	360.093
735.518	356.371
735.646	355.959
735.774	357.763
735.902	356.835
736.030	354.701
736.158	353.680
736.287	350.969
736.415	352.309
736.543	353.330
736.671	348.000
736.799	344.124
736.927	348.175
737.055	348.196
737.183	346.464
737.312	344.464
737.440	342.206
737.568	345.742
737.696	343.485
737.824	337.763
737.952	337.835
738.080	340.423
738.208	338.557
738.337	331.082
738.465	334.227
738.593	331.268
738.721	331.866
738.849	339.557
738.977	329.938
739.105	330.845
739.233	327.711
739.362	321.546
739.490	327.536
739.618	327.856
739.746	326.959
739.874	325.660
740.002	331.165
740.130	324.701
740.258	324.402
740.387	326.165
740.515	323.629
740.643	323.567
740.771	320.856
740.899	319.186
741.027	316.876
741.155	322.443
741.283	314.258
741.412	317.124
741.540	318.206
741.668	308.557
741.796	313.464
741.924	307.990
742.052	311.835
742.180	306.433
742.308	308.742
742.437	309.619
742.565	308.567
742.693	309.103
742.821	304.814
742.949	302.505
743.077	309.907
743.205	305.856
743.333	306.093
743.462	302.186
743.590	299.021
743.718	299.804
743.846	295.443
743.974	298.546
744.102	297.144
744.230	299.454
744.358	293.495
744.487	299.072
744.615	294.557
744.743	293.814
744.871	292.649
744.999	291.423
745.127	293.660
745.255	286.072
745.383	291.536
745.512	291.577
745.640	287.969
745.768	285.639
745.896	285.330
746.024	284.546
746.152	285.227
746.280	283.598
746.408	282.474
746.537	282.495
746.665	282.680
746.793	283.103
746.921	280.825
747.049	282.433
747.177	276.629
747.305	279.247
747.433	278.134
747.562	277.361
747.690	273.113
747.818	275.237
747.946	271.959
748.074	272.093
748.202	275.144
748.330	267.320
748.458	270.639
748.587	270.381
748.715	265.629
748.843	272.825
748.971	266.196
749.099	269.206
749.227	266.856
749.355	267.124
749.483	267.691
749.612	263.536
749.740	265.196
749.868	262.144
749.996	263.670
750.124	262.175
750.252	259.814
750.380	264.619
750.508	264.299
750.637	261.216
750.765	258.309
750.893	256.959
751.021	257.577
751.149	255.227
751.277	258.732
751.405	253.443
751.533	255.876
751.662	256.206
751.790	258.082
751.918	255.052
752.046	249.495
752.174	251.412
752.302	251.619
752.430	254.237
752.558	247.392
752.687	248.000
752.815	249.629
752.943	249.351
753.071	246.928
753.199	241.443
753.327	245.608
753.455	241.897
753.583	240.845
753.712	245.763
753.840	240.557
753.968	244.196
754.096	237.763
754.224	243.928
754.352	239.794
754.480	242.052
754.608	242.722
754.737	240.113
754.865	241.155
754.993	236.052
755.121	235.588
755.249	235.186
755.377	229.938
755.505	234.649
755.633	235.278
755.762	230.825
755.890	235.082
756.018	229.433
756.146	230.845
756.274	235.866
756.402	231.155
756.530	227.474
756.658	232.557
756.787	227.000
756.915	224.773
757.043	226.814
757.171	227.433
757.299	225.722
757.427	223.289
757.555	224.887
757.683	224.897
757.812	224.907
757.940	220.773
758.068	219.186
758.196	223.474
758.324	219.948
758.452	220.598
758.580	218.093
758.708	223.247
758.837	214.979
758.965	218.330
759.093	214.794
759.221	215.804
759.349	214.969
759.477	216.412
759.605	213.598
759.733	214.031
759.862	211.464
759.990	211.237
760.118	209.258
760.246	208.021
760.374	207.103
760.502	208.701
760.630	206.113
760.758	207.227
760.887	206.289
761.015	205.454
761.143	206.515
761.271	203.186
761.399	201.021
761.527	207.619
761.655	202.320
761.783	204.309
761.912	206.598
762.040	201.206
762.168	200.649
762.296	197.773
762.424	202.021
762.552	198.216
762.680	196.299
762.808	197.474
762.937	200.093
763.065	195.216
763.193	198.165
763.321	197.392
763.449	194.866
763.577	191.247
763.705	195.680
763.833	197.320
763.962	194.155
764.090	190.165
764.218	193.495
764.346	191.299
764.474	191.381
764.602	187.969
764.730	190.216
764.858	191.361
764.987	190.670
765.115	187.175
765.243	190.670
765.371	193.412
765.499	184.515
765.627	187.742
765.755	189.072
765.883	182.340
766.012	187.412
766.140	185.649
766.268	187.227
766.396	186.588
766.524	183.835
766.652	185.876
766.780	184.825
766.908	186.052
767.037	186.082
767.165	182.907
767.293	182.052
767.421	186.660
767.549	179.897
767.677	184.247
767.805	187.485
767.933	179.670
768.062	182.814
768.190	180.196
768.318	184.701
768.446	180.433
768.574	178.268
768.702	182.598
768.830	181.052
768.958	181.753
769.087	180.928
769.215	182.742
769.343	181.897
769.471	180.670
769.599	180.629
769.727	181.392
769.855	180.175
769.983	178.887
770.112	179.907
770.240	181.464
770.368	177.402
770.496	180.835
770.624	178.155
770.752	180.258
770.880	178.990
771.008	176.732
771.137	180.711
771.265	178.897
771.393	176.701
771.521	176.299
771.649	177.258
771.777	172.629
771.905	174.423
772.033	183.052
772.162	178.103
772.290	175.619
772.418	179.773
772.546	174.557
772.674	178.433
772.802	176.505
772.930	174.371
773.058	174.258
773.187	173.062
773.315	173.897
773.443	174.206
773.571	177.412
773.699	169.247
773.827	173.062
773.955	174.010
774.083	173.639
774.212	172.155
774.340	171.485
774.468	170.959
774.596	168.639
774.724	174.474
774.852	171.072
774.980	171.856
775.108	171.113
775.237	171.134
775.365	167.948
775.493	174.866
775.621	173.144
775.749	171.660
775.877	171.515
776.005	170.897
776.133	169.619
776.262	174.196
776.390	169.515
776.518	169.938
776.646	170.278
776.774	169.670
776.902	168.680
777.030	168.258
777.158	170.701
777.287	169.247
777.415	167.515
777.543	171.124
777.671	169.010
777.799	167.938
777.927	169.794
778.055	167.598
778.183	168.474
778.312	168.464
778.440	167.701
778.568	167.299
778.696	165.402
778.824	169.763
778.952	168.557
779.080	166.320
779.208	167.639
779.337	167.464
779.465	166.505
779.593	168.216
779.721	166.082
779.849	163.732
779.977	163.804
780.105	165.505
780.233	163.608
780.362	164.526
780.490	166.515
780.618	161.268
780.746	165.371
780.874	161.206
781.002	164.062
781.130	164.433
781.258	161.866
781.387	166.206
781.515	162.608
781.643	160.474
781.771	163.969
781.899	161.041
782.027	160.742
782.155	163.216
782.283	161.680
782.412	159.299
782.540	163.495
782.668	161.330
782.796	162.113
782.924	161.773
783.052	156.876
783.180	162.000
783.308	159.155
783.437	161.227
783.565	159.959
783.693	159.649
783.821	161.928
783.949	158.082
784.077	161.258
784.205	160.124
784.333	162.371
784.462	161.670
784.590	161.784
784.718	158.629
784.846	160.247
784.974	158.536
785.102	161.052
785.230	160.825
785.358	158.711
785.487	159.144
785.615	155.959
785.743	156.351
785.871	157.423
785.999	156.454
786.127	156.237
786.255	157.082
786.383	156.371
786.512	158.907
786.640	156.433
786.768	155.505
786.896	155.340
787.024	158.639
787.152	153.454
787.280	157.495
787.408	156.845
787.537	156.299
787.665	153.371
787.793	154.433
787.921	157.526
788.049	155.742
788.177	156.598
788.305	153.732
788.433	155.990
788.562	156.804
788.690	153.247
788.818	152.876
788.946	156.216
789.074	154.433
789.202	154.804
789.330	152.938
789.458	155.433
789.587	152.588
789.715	153.371
789.843	153.402
789.971	154.763
790.099	153.309
790.227	151.969
790.355	151.557
790.483	152.299
790.612	150.866
790.740	154.010
790.868	154.093
790.996	155.701
791.124	151.330
791.252	152.258
791.380	149.835
791.508	149.330
791.637	155.495
791.765	154.041
791.893	149.278
792.021	150.124
792.149	150.680
792.277	151.763
792.405	155.381
792.533	149.443
792.662	149.454
792.790	153.144
792.918	152.546
793.046	149.495
793.174	149.351
793.302	150.835
793.430	148.691
793.558	148.433
793.687	148.835
793.815	147.361
793.943	147.691
794.071	148.351
794.199	147.557
794.327	146.753
794.455	147.588
794.583	146.361
794.712	151.052
794.840	147.474
794.968	145.701
795.096	144.237
795.224	148.330
795.352	146.381
795.480	145.515
795.608	147.866
795.737	145.887
795.865	144.732
795.993	145.309
796.121	146.443
796.249	144.010
796.377	144.464
796.505	146.000
796.633	148.454
796.762	142.196
796.890	148.093
797.018	145.557
797.146	144.660
797.274	142.227
797.402	143.722
797.530	144.660
797.658	144.938
797.787	142.392
797.915	144.546
798.043	141.784
798.171	144.021
798.299	141.175
798.427	143.206
798.555	141.969
798.683	141.268
798.812	141.155
798.940	141.887
799.068	143.959
799.196	144.495
799.324	140.361
799.452	141.608
799.580	138.784
799.708	140.763
799.837	139.814
799.965	139.062
800.093	140.320
800.221	140.938
800.349	140.495
800.477	140.010
800.605	140.381
800.733	141.144
800.862	141.381
800.990	139.289
801.118	140.144
801.246	137.000
801.374	136.577
801.502	138.320
801.630	139.227
801.758	138.505
801.887	135.598
802.015	137.010
802.143	136.557
802.271	138.103
802.399	138.010
802.527	138.206
802.655	133.845
802.783	137.588
802.912	137.237
803.040	138.990
803.168	136.742
803.296	134.186
803.424	136.639
803.552	134.804
803.680	134.247
803.808	134.979
803.937	135.866
804.065	134.691
804.193	132.381
804.321	133.515
804.449	134.948
804.577	136.072
804.705	137.021
804.833	134.062
804.962	133.680
805.090	134.082
805.218	135.175
805.346	135.361
805.474	134.309
805.602	136.320
805.730	133.722
805.858	135.474
805.987	133.866
806.115	133.835
806.243	132.371
806.371	132.474
806.499	132.216
806.627	129.691
806.755	132.990
806.883	133.289
807.012	132.835
807.140	130.825
807.268	129.505
807.396	133.691
807.524	131.577
807.652	129.381
807.780	132.680
807.908	132.454
808.037	129.433
808.165	132.299
808.293	131.454
808.421	129.918
808.549	131.742
808.677	128.546
808.805	131.969
808.933	131.268
809.062	129.124
809.190	131.371
809.318	131.113
809.446	130.784
809.574	129.567
809.702	131.227
809.830	131.660
809.958	129.660
810.087	129.247
810.215	131.794
810.343	132.660
810.471	132.320
810.599	130.784
810.727	132.608
810.855	128.423
810.983	131.021
811.112	131.979
811.240	128.959
811.368	128.423
811.496	130.289
811.624	128.577
811.752	129.216
811.880	129.309
812.008	126.464
812.137	129.474
812.265	127.608
812.393	127.268
812.521	125.299
812.649	126.773
812.777	127.505
812.905	128.557
813.033	126.361
813.162	125.732
813.290	128.897
813.418	128.907
813.546	127.175
813.674	128.742
813.802	127.289
813.930	123.268
814.058	128.433
814.187	126.918
814.315	125.454
814.443	126.691
814.571	124.969
814.699	125.732
814.827	128.495
814.955	125.608
815.083	127.227
815.212	126.144
815.340	124.680
815.468	124.454
815.596	123.299
815.724	126.000
815.852	127.732
815.980	125.113
816.108	124.804
816.237	123.392
816.365	124.742
816.493	123.928
816.621	123.206
816.749	126.268
816.877	123.371
817.005	124.381
817.133	128.412
817.262	125.773
817.390	125.649
817.518	126.577
817.646	123.082
817.774	122.247
817.902	125.351
818.030	123.247
818.158	124.866
818.287	123.000
818.415	122.010
818.543	121.701
818.671	123.093
818.799	121.608
818.927	122.062
819.055	121.567
819.183	124.845
819.312	123.299
819.440	121.155
819.568	121.814
819.696	123.072
819.824	122.876
819.952	120.835
820.080	122.247
820.208	119.608
820.337	122.763
820.465	122.371
820.593	118.835
820.721	119.722
820.849	121.144
820.977	120.485
821.105	120.258
821.233	120.773
821.362	120.412
821.490	122.330
821.618	121.062
821.746	116.536
821.874	118.000
822.002	118.454
822.130	121.124
822.258	118.897
822.387	119.351
822.515	119.567
822.643	117.443
822.771	116.072
822.899	119.134
823.027	118.742
823.155	118.010
823.283	118.948
823.412	120.000
823.540	118.186
823.668	120.103
823.796	116.320
823.924	119.753
824.052	116.814
824.180	117.732
824.308	117.732
824.437	118.742
824.565	118.196
824.693	120.351
824.821	119.351
824.949	118.309
825.077	117.412
825.205	116.660
825.333	116.753
825.462	118.371
825.590	116.392
825.718	116.186
825.846	117.701
825.974	115.897
826.102	116.052
826.230	116.134
826.358	117.753
826.487	118.474
826.615	118.505
826.743	116.351
826.871	114.320
826.999	118.495
827.127	115.959
827.255	113.144
827.383	116.742
827.512	116.918
827.640	117.258
827.768	116.495
827.896	115.381
828.024	115.588
828.152	117.660
828.280	117.742
828.408	116.278
828.537	115.876
828.665	115.897
828.793	115.258
828.921	115.907
829.049	115.052
829.177	113.567
829.305	116.082
829.433	114.278
829.562	112.948
829.690	114.557
829.818	115.784
829.946	114.907
830.074	112.691
830.202	116.082
830.330	114.526
830.458	115.072
830.587	113.268
830.715	112.866
830.843	112.443
830.971	114.588
831.099	113.113
831.227	114.268
831.355	111.918
831.483	112.814
831.612	112.876
831.740	112.629
831.868	115.320
831.996	112.763
832.124	113.928
832.252	112.330
832.380	111.619
832.508	113.237
832.637	112.433
832.765	111.742
832.893	113.278
833.021	112.309
833.149	112.423
833.277	114.062
833.405	113.763
833.533	111.814
833.662	112.835
833.790	111.825
833.918	112.155
834.046	113.124
834.174	114.784
834.302	111.608
834.430	111.515
834.558	110.536
834.687	112.433
834.815	111.474
834.943	112.536
835.071	110.464
835.199	112.340
835.327	111.330
835.455	110.010
835.583	111.660
835.712	111.155
835.840	109.753
835.968	111.577
836.096	110.598
836.224	112.969
836.352	112.969
836.480	110.979
836.608	110.990
836.737	111.691
836.865	109.660
836.993	110.598
837.121	110.278
837.249	108.948
837.377	110.557
837.505	109.588
837.633	109.536
837.762	110.206
837.890	109.577
838.018	109.763
838.146	110.124
838.274	109.753
838.402	111.711
838.530	109.206
838.658	109.577
838.787	108.856
838.915	110.155
839.043	110.454
839.171	110.392
839.299	111.124
839.427	110.330
839.555	111.000
839.683	111.423
839.812	109.340
839.940	110.454
840.068	111.567
840.196	109.464
840.324	108.567
840.452	108.691
840.580	108.381
840.708	109.371
840.837	109.103
840.965	109.979
841.093	110.052
841.221	110.567
841.349	109.794
841.477	109.887
841.605	108.825
841.733	108.134
841.862	110.320
841.990	109.052
842.118	109.918
842.246	108.515
842.374	108.588
842.502	109.711
842.630	107.505
842.758	108.134
842.887	107.320
843.015	107.361
843.143	106.814
843.271	108.216
843.399	108.546
843.527	107.134
843.655	107.392
843.783	109.546
843.912	108.918
844.040	108.485
844.168	109.072
844.296	108.649
844.424	107.567
844.552	107.866
844.680	107.443
844.808	107.691
844.937	108.856
845.065	106.433
845.193	107.546
845.321	107.536
845.449	107.196
845.577	107.021
845.705	107.804
845.833	109.526
845.962	108.237
846.090	106.268
846.218	107.402
846.346	108.608
846.474	106.907
846.602	106.113
846.730	107.753
846.858	106.619
846.987	105.856
847.115	106.845
847.243	107.361
847.371	106.928
847.499	106.330
847.627	106.763
847.755	105.866
847.883	105.052
848.012	104.969
848.140	107.144
848.268	107.165
848.396	106.247
848.524	107.052
848.652	107.443
848.780	104.629
848.908	106.041
849.037	106.351
849.165	105.825
849.293	104.320
849.421	105.515
849.549	106.021
849.677	104.711
849.805	105.629
849.933	106.505
850.062	105.856
850.190	104.351
850.318	105.598
850.446	106.093
850.574	105.196
850.702	106.526
850.830	105.505
850.958	106.062
851.087	106.567
851.215	105.505
851.343	105.825
851.471	105.474
851.599	106.093
851.727	105.041
851.855	105.423
851.983	104.567
852.112	105.216
852.240	104.918
852.368	106.206
852.496	104.784
852.624	104.639
852.752	104.289
852.880	104.680
853.008	104.567
853.137	104.186
853.265	106.021
853.393	105.309
853.521	104.495
853.649	105.052
853.777	104.000
853.905	103.711
854.033	102.938
854.162	104.124
854.290	103.887
854.418	102.876
854.546	103.340
854.674	104.619
854.802	104.320
854.930	103.155
855.058	103.072
855.187	105.711
855.315	103.948
855.443	104.804
855.571	103.804
855.699	103.918
855.827	103.536
855.955	103.619
856.083	103.732
856.212	104.247
856.340	104.072
856.468	104.876
856.596	104.557
856.724	104.381
856.852	103.732
856.980	102.732
857.108	103.588
857.237	104.062
857.365	104.526
857.493	104.082
857.621	103.794
857.749	102.485
857.877	102.557
858.005	104.196
858.133	102.423
858.262	104.495
858.390	103.845
858.518	102.763
858.646	103.485
858.774	104.701
858.902	103.258
859.030	102.835
859.158	102.113
859.287	102.454
859.415	101.691
859.543	101.567
859.671	103.381
859.799	104.794
859.927	104.649
860.055	103.773
860.183	103.742
860.312	102.979
860.440	101.804
860.568	102.227
860.696	102.897
860.824	103.423
860.952	102.835
861.080	102.320
861.208	103.938
861.337	102.278
861.465	102.021
861.593	103.412
861.721	104.598
861.849	103.165
861.977	103.340
862.105	102.474
862.233	101.732
862.362	103.237
862.490	102.887
862.618	103.928
862.746	101.464
862.874	103.619
863.002	103.103
863.130	102.268
863.258	102.351
863.387	101.454
863.515	102.649
863.643	101.876
863.771	102.103
863.899	101.598
864.027	104.124
864.155	102.773
864.283	101.165
864.412	102.608
864.540	103.464
864.668	101.268
864.796	102.474
864.924	101.443
865.052	102.196
865.180	102.103
865.308	100.639
865.437	101.423
865.565	101.938
865.693	101.454
865.821	101.495
865.949	101.670
866.077	103.227
866.205	101.052
866.333	101.979
866.462	101.608
866.590	102.052
866.718	101.144
866.846	101.753
866.974	101.619
867.102	102.124
867.230	100.660
867.358	101.062
867.487	102.082
867.615	101.825
867.743	103.031
867.871	102.825
867.999	100.897
868.127	101.742
868.255	101.897
868.383	103.536
868.512	103.784
868.640	102.753
868.768	103.113
868.896	100.753
869.024	101.021
869.152	101.763
869.280	101.969
869.408	102.041
869.537	102.134
869.665	101.505
869.793	102.598
869.921	102.227
870.049	102.546
870.177	102.722
870.305	102.216
870.433	102.454
870.562	101.814
870.690	101.773
870.818	100.567
870.946	101.701
871.074	102.072
871.202	101.680
871.330	100.845
871.458	102.918
871.587	102.113
871.715	101.505
871.843	101.103
871.971	101.320
872.099	100.000
872.227	99.670
872.355	99.876
872.483	100.330
872.612	102.588
872.740	99.227
872.868	102.000
872.996	100.619
873.124	100.763
873.252	102.072
873.380	101.072
873.508	103.000
873.637	101.546
873.765	100.814
873.893	100.619
874.021	101.423
874.149	101.577
874.277	101.000
874.405	101.000
874.533	102.454
874.662	100.938
874.790	100.753
874.918	101.433
875.046	100.052
875.174	100.794
875.302	101.237
875.430	101.155
875.558	100.412
875.687	100.784
875.815	103.227
875.943	101.918
876.071	103.258
876.199	103.062
876.327	102.062
876.455	102.866
876.583	101.474
876.712	102.144
876.840	99.948
876.968	101.804
877.096	101.124
877.224	102.546
877.352	100.784
877.480	100.340
877.608	101.268
877.737	100.670
877.865	99.918
877.993	100.990
878.121	101.629
878.249	103.361
878.377	101.464
878.505	101.103
878.633	102.052
878.762	101.536
878.890	100.608
879.018	100.845
879.146	101.010
879.274	101.021
879.402	101.577
879.530	101.237
879.658	101.021
879.787	99.938
879.915	101.784
880.043	101.155
880.171	100.577
880.299	100.330
880.427	101.969
880.555	100.742
880.683	101.485
880.812	100.753
880.940	100.423
881.068	101.124
881.196	99.876
881.324	100.680
881.452	101.505
881.580	101.464
881.708	100.165
881.837	101.680
881.965	100.711
882.093	100.381
882.221	101.361
882.349	99.505
882.477	101.186
882.605	101.433
882.733	100.258
882.862	101.340
882.990	99.361
883.118	101.629
883.246	100.515
883.374	102.216
883.502	100.320
883.630	102.278
883.758	101.237
883.887	99.515
884.015	100.526
884.143	101.866
884.271	99.794
884.399	100.691
884.527	100.433
884.655	100.804
884.783	101.454
884.912	100.515
885.040	101.072
885.168	100.691
885.296	101.278
885.424	99.907
885.552	99.948
885.680	99.165
885.808	100.629
885.937	102.196
886.065	100.237
886.193	100.175
886.321	101.505
886.449	100.577
886.577	100.577
886.705	100.196
886.833	100.938
886.962	101.186
887.090	100.062
887.218	101.237
887.346	100.258
887.474	102.021
887.602	100.577
887.730	100.031
887.858	100.351
887.987	98.423
888.115	99.546
888.243	101.454
888.371	102.629
888.499	102.062
888.627	100.526
888.755	100.515
888.883	100.742
889.012	99.412
889.140	99.082
889.268	99.392
889.396	99.381
889.524	99.340
889.652	100.742
889.780	100.784
889.908	99.392
890.037	100.866
890.165	100.021
890.293	100.227
890.421	100.979
890.549	101.320
890.677	100.206
890.805	100.155
890.933	100.010
891.062	99.216
891.190	99.907
891.318	101.546
891.446	100.876
891.574	100.072
891.702	100.144
891.830	99.969
891.958	100.619
892.087	100.567
892.215	101.505
892.343	101.340
892.471	99.691
892.599	100.134
892.727	102.216
892.855	100.134
892.983	100.845
893.112	99.670
893.240	100.629
893.368	100.464
893.496	101.433
893.624	100.124
893.752	101.000
893.880	100.289
894.008	100.608
894.137	100.546
894.265	101.021
894.393	101.825
894.521	100.701
894.649	100.216
894.777	99.536
894.905	100.784
895.033	102.742
895.162	101.546
895.290	100.670
895.418	101.773
895.546	101.711
895.674	99.557
895.802	100.052
895.930	99.330
896.058	99.227
896.187	101.010
896.315	101.402
896.443	100.041
896.571	100.835
896.699	101.660
896.827	101.753
896.955	99.691
897.083	100.433
897.212	101.711
897.340	100.433
897.468	99.433
897.596	99.907
897.724	99.186
897.852	100.268
897.980	100.010
898.108	99.619
898.237	99.186
898.365	100.732
898.493	101.412
898.621	100.773
898.749	100.629
898.877	99.722
899.005	100.216
899.133	99.856
899.262	101.186
899.390	99.309
899.518	100.268
899.646	99.753
899.774	101.907
899.902	100.577
900.030	101.567
900.158	100.124
900.287	99.979
900.415	99.722
900.543	100.082
900.671	101.784
900.799	100.608
900.927	101.402
901.055	99.072
901.183	100.093
901.312	100.701
901.440	102.515
901.568	101.299
901.696	99.680
901.824	100.392
901.952	101.505
902.080	101.072
902.208	100.557
902.337	100.134
902.465	100.247
902.593	101.959
902.721	101.742
902.849	100.361
902.977	99.402
903.105	100.546
903.233	99.557
903.362	101.464
903.490	99.258
903.618	100.474
903.746	99.392
903.874	100.784
904.002	101.557
904.130	100.227
904.258	99.227
904.387	100.557
904.515	99.897
904.643	101.165
904.771	100.330
904.899	99.443
905.027	99.299
905.155	98.794
905.283	99.814
905.412	101.526
905.540	99.608
905.668	97.526
905.796	99.330
905.924	100.196
906.052	101.062
906.180	100.330
906.308	100.134
906.437	98.629
906.565	100.000
906.693	101.175
906.821	98.928
906.949	100.021
907.077	99.856
907.205	100.660
907.333	100.155
907.462	100.907
907.590	100.918
907.718	99.959
907.846	100.629
907.974	100.588
908.102	100.155
908.230	100.237
908.358	99.959
908.487	100.588
908.615	100.330
908.743	101.247
908.871	100.969
908.999	99.495
909.127	99.546
909.255	99.381
909.383	98.526
909.512	101.124
909.640	101.113
909.768	102.021
909.896	100.175
910.024	100.722
910.152	100.629
910.280	99.392
910.408	100.948
910.537	101.619
910.665	99.959
910.793	100.165
910.921	100.443
911.049	99.835
911.177	99.680
911.305	100.526
911.433	100.784
911.562	101.113
911.690	102.041
911.818	101.000
911.946	101.526
912.074	101.495
912.202	101.113
912.330	100.567
912.458	100.680
912.587	100.804
912.715	100.979
912.843	101.155
912.971	100.258
913.099	100.247
913.227	101.258
913.355	100.845
913.483	99.722
913.612	99.928
913.740	100.124
913.868	100.588
