whiteu_at_750.00nm_cut_at_1060.50Y_01.dat
19.06.2023
11:24:58
cut middle at Y: 1060.50
top cursor: 1109 down cursor: 1012 mean of: 97 lines , 2560 datapoints
wavelength(nm)	intensity[arb. units]
585.996	1554.093
586.124	1505.423
586.252	1493.577
586.380	1498.959
586.508	1492.753
586.637	1506.093
586.765	1500.021
586.893	1503.845
587.021	1507.701
587.149	1513.629
587.277	1517.010
587.405	1515.299
587.533	1498.804
587.662	1513.021
587.790	1513.928
587.918	1508.093
588.046	1517.443
588.174	1523.722
588.302	1522.021
588.430	1516.670
588.558	1518.175
588.687	1519.845
588.815	1543.804
588.943	1532.175
589.071	1522.196
589.199	1520.649
589.327	1517.691
589.455	1518.392
589.583	1532.299
589.712	1540.010
589.840	1524.289
589.968	1527.495
590.096	1539.371
590.224	1533.660
590.352	1533.082
590.480	1537.711
590.608	1541.515
590.737	1516.938
590.865	1539.021
590.993	1541.546
591.121	1535.979
591.249	1537.165
591.377	1539.474
591.505	1529.361
591.633	1532.691
591.762	1548.845
591.890	1536.206
592.018	1532.546
592.146	1536.423
592.274	1550.649
592.402	1535.711
592.530	1532.464
592.658	1533.990
592.787	1536.155
592.915	1542.186
593.043	1553.289
593.171	1528.711
593.299	1545.340
593.427	1550.402
593.555	1541.206
593.683	1536.959
593.812	1547.629
593.940	1558.144
594.068	1558.371
594.196	1567.165
594.324	1560.186
594.452	1577.557
594.580	1569.763
594.708	1574.639
594.837	1558.856
594.965	1580.165
595.093	1585.371
595.221	1581.928
595.349	1578.660
595.477	1594.577
595.605	1579.124
595.733	1613.629
595.862	1590.784
595.990	1595.082
596.118	1594.835
596.246	1596.505
596.374	1593.124
596.502	1616.082
596.630	1615.165
596.758	1614.866
596.887	1611.299
597.015	1628.835
597.143	1590.959
597.271	1607.278
597.399	1611.031
597.527	1625.732
597.655	1623.918
597.783	1615.433
597.912	1616.175
598.040	1604.732
598.168	1593.598
598.296	1619.845
598.424	1615.763
598.552	1605.763
598.680	1589.948
598.808	1618.969
598.937	1607.454
599.065	1610.691
599.193	1604.866
599.321	1583.928
599.449	1600.969
599.577	1602.876
599.705	1607.959
599.833	1606.485
599.962	1583.216
600.090	1597.186
600.218	1603.567
600.346	1625.763
600.474	1604.711
600.602	1609.505
600.730	1603.320
600.858	1615.216
600.987	1613.052
601.115	1598.062
601.243	1598.856
601.371	1606.835
601.499	1602.351
601.627	1610.598
601.755	1616.216
601.883	1601.320
602.012	1620.670
602.140	1621.505
602.268	1622.742
602.396	1634.619
602.524	1631.320
602.652	1639.856
602.780	1627.041
602.908	1633.660
603.037	1645.103
603.165	1657.732
603.293	1664.443
603.421	1668.320
603.549	1661.649
603.677	1659.402
603.805	1663.309
603.933	1674.680
604.062	1669.784
604.190	1681.959
604.318	1673.041
604.446	1699.969
604.574	1685.433
604.702	1696.608
604.830	1689.309
604.958	1707.175
605.087	1715.887
605.215	1721.433
605.343	1725.196
605.471	1728.567
605.599	1725.835
605.727	1731.351
605.855	1720.247
605.983	1723.010
606.112	1741.010
606.240	1746.165
606.368	1741.804
606.496	1752.361
606.624	1746.464
606.752	1727.845
606.880	1752.784
607.008	1742.464
607.137	1760.402
607.265	1747.021
607.393	1765.505
607.521	1740.474
607.649	1743.680
607.777	1744.072
607.905	1769.588
608.033	1751.918
608.162	1736.289
608.290	1750.536
608.418	1762.103
608.546	1746.113
608.674	1747.546
608.802	1746.433
608.930	1760.711
609.058	1736.072
609.187	1744.052
609.315	1739.526
609.443	1737.072
609.571	1736.907
609.699	1731.433
609.827	1737.608
609.955	1734.052
610.083	1724.619
610.212	1742.113
610.340	1732.371
610.468	1734.660
610.596	1750.918
610.724	1728.124
610.852	1729.320
610.980	1727.773
611.108	1735.866
611.237	1734.320
611.365	1729.866
611.493	1726.351
611.621	1727.515
611.749	1748.505
611.877	1752.876
612.005	1740.938
612.133	1733.268
612.262	1732.876
612.390	1741.041
612.518	1753.557
612.646	1752.701
612.774	1749.948
612.902	1760.515
613.030	1770.866
613.158	1761.701
613.287	1768.639
613.415	1775.320
613.543	1778.052
613.671	1781.948
613.799	1784.371
613.927	1783.392
614.055	1791.887
614.183	1786.000
614.312	1786.660
614.440	1781.093
614.568	1794.082
614.696	1801.196
614.824	1797.742
614.952	1804.660
615.080	1806.289
615.208	1811.948
615.337	1814.979
615.465	1813.742
615.593	1814.402
615.721	1818.392
615.849	1820.907
615.977	1817.340
616.105	1812.825
616.233	1812.814
616.362	1829.196
616.490	1826.722
616.618	1844.227
616.746	1811.526
616.874	1828.711
617.002	1839.722
617.130	1850.732
617.258	1842.918
617.387	1819.804
617.515	1828.979
617.643	1832.216
617.771	1835.124
617.899	1830.557
618.027	1837.660
618.155	1843.701
618.283	1822.062
618.412	1824.670
618.540	1843.206
618.668	1843.175
618.796	1825.103
618.924	1840.423
619.052	1849.237
619.180	1842.753
619.308	1839.165
619.437	1845.402
619.565	1843.588
619.693	1838.113
619.821	1847.701
619.949	1847.031
620.077	1838.010
620.205	1853.567
620.333	1847.206
620.462	1838.577
620.590	1848.041
620.718	1848.392
620.846	1840.134
620.974	1855.423
621.102	1841.959
621.230	1834.052
621.358	1855.330
621.487	1847.546
621.615	1845.175
621.743	1855.887
621.871	1843.402
621.999	1829.722
622.127	1838.186
622.255	1837.268
622.383	1845.052
622.512	1840.825
622.640	1842.732
622.768	1830.402
622.896	1832.082
623.024	1833.082
623.152	1829.443
623.280	1824.010
623.408	1832.670
623.537	1837.784
623.665	1835.031
623.793	1840.979
623.921	1824.103
624.049	1821.866
624.177	1827.505
624.305	1826.206
624.433	1844.186
624.562	1833.577
624.690	1838.907
624.818	1820.443
624.946	1828.701
625.074	1817.979
625.202	1807.371
625.330	1818.948
625.458	1820.093
625.587	1826.959
625.715	1802.825
625.843	1816.546
625.971	1815.619
626.099	1823.814
626.227	1828.361
626.355	1806.804
626.483	1829.887
626.612	1818.907
626.740	1819.258
626.868	1830.876
626.996	1821.979
627.124	1813.227
627.252	1808.825
627.380	1816.268
627.508	1808.072
627.637	1805.237
627.765	1811.289
627.893	1823.320
628.021	1812.041
628.149	1814.031
628.277	1822.505
628.405	1825.918
628.533	1810.289
628.662	1801.918
628.790	1819.505
628.918	1820.680
629.046	1819.897
629.174	1810.959
629.302	1819.722
629.430	1835.990
629.558	1824.835
629.687	1831.742
629.815	1823.866
629.943	1828.474
630.071	1819.979
630.199	1829.485
630.327	1821.247
630.455	1823.103
630.583	1834.732
630.712	1840.289
630.840	1822.423
630.968	1838.990
631.096	1849.794
631.224	1827.361
631.352	1820.856
631.480	1821.392
631.608	1829.000
631.737	1819.454
631.865	1854.567
631.993	1836.629
632.121	1828.897
632.249	1835.784
632.377	1831.093
632.505	1806.278
632.633	1809.691
632.762	1823.784
632.890	1831.856
633.018	1827.227
633.146	1818.629
633.274	1823.619
633.402	1813.392
633.530	1818.237
633.658	1817.505
633.787	1814.691
633.915	1818.443
634.043	1808.289
634.171	1805.175
634.299	1810.010
634.427	1797.959
634.555	1812.907
634.683	1796.144
634.812	1795.320
634.940	1797.649
635.068	1788.608
635.196	1799.928
635.324	1807.474
635.452	1792.742
635.580	1798.216
635.708	1788.454
635.837	1770.072
635.965	1775.165
636.093	1765.536
636.221	1774.309
636.349	1760.485
636.477	1751.103
636.605	1758.113
636.733	1751.052
636.862	1735.907
636.990	1741.093
637.118	1743.546
637.246	1731.124
637.374	1739.454
637.502	1731.216
637.630	1742.825
637.758	1724.546
637.887	1729.536
638.015	1723.237
638.143	1733.907
638.271	1703.268
638.399	1699.515
638.527	1693.299
638.655	1704.691
638.783	1718.464
638.912	1714.113
639.040	1699.371
639.168	1710.753
639.296	1695.536
639.424	1708.629
639.552	1698.196
639.680	1694.856
639.808	1684.639
639.937	1682.392
640.065	1692.639
640.193	1696.907
640.321	1683.701
640.449	1681.835
640.577	1676.649
640.705	1659.464
640.833	1680.330
640.962	1675.371
641.090	1667.093
641.218	1674.093
641.346	1676.443
641.474	1670.753
641.602	1655.845
641.730	1676.928
641.858	1663.845
641.987	1668.371
642.115	1684.021
642.243	1667.773
642.371	1671.773
642.499	1654.629
642.627	1661.052
642.755	1660.876
642.883	1663.052
643.012	1645.340
643.140	1659.680
643.268	1652.804
643.396	1658.021
643.524	1658.897
643.652	1647.753
643.780	1657.794
643.908	1651.216
644.037	1648.062
644.165	1636.577
644.293	1655.433
644.421	1642.485
644.549	1653.062
644.677	1659.062
644.805	1648.134
644.933	1645.670
645.062	1637.021
645.190	1633.175
645.318	1635.557
645.446	1655.021
645.574	1639.268
645.702	1635.237
645.830	1655.876
645.958	1650.381
646.087	1652.856
646.215	1646.381
646.343	1648.443
646.471	1634.103
646.599	1636.629
646.727	1634.918
646.855	1625.278
646.983	1638.381
647.112	1638.041
647.240	1627.814
647.368	1609.649
647.496	1619.711
647.624	1615.567
647.752	1622.113
647.880	1620.175
648.008	1611.031
648.137	1603.495
648.265	1595.680
648.393	1598.196
648.521	1588.701
648.649	1594.959
648.777	1590.216
648.905	1583.392
649.033	1570.371
649.162	1576.784
649.290	1575.577
649.418	1573.361
649.546	1572.588
649.674	1576.309
649.802	1576.495
649.930	1564.845
650.058	1555.907
650.187	1557.021
650.315	1568.186
650.443	1545.598
650.571	1541.247
650.699	1542.402
650.827	1546.412
650.955	1546.773
651.083	1535.619
651.212	1542.289
651.340	1530.113
651.468	1530.351
651.596	1519.649
651.724	1524.969
651.852	1522.495
651.980	1510.268
652.108	1526.227
652.237	1511.258
652.365	1498.052
652.493	1509.041
652.621	1499.423
652.749	1508.124
652.877	1502.196
653.005	1502.959
653.133	1516.330
653.262	1500.639
653.390	1494.433
653.518	1489.887
653.646	1486.948
653.774	1493.773
653.902	1495.753
654.030	1479.722
654.158	1474.629
654.287	1479.928
654.415	1468.577
654.543	1467.392
654.671	1469.320
654.799	1459.196
654.927	1460.464
655.055	1451.330
655.183	1441.670
655.312	1442.021
655.440	1451.165
655.568	1440.577
655.696	1423.186
655.824	1442.082
655.952	1436.165
656.080	1431.753
656.208	1436.412
656.337	1432.000
656.465	1438.186
656.593	1427.938
656.721	1432.289
656.849	1422.433
656.977	1410.412
657.105	1400.175
657.233	1411.216
657.362	1409.402
657.490	1399.041
657.618	1399.856
657.746	1402.969
657.874	1387.423
658.002	1398.454
658.130	1390.495
658.258	1388.351
658.387	1383.237
658.515	1368.010
658.643	1374.804
658.771	1370.701
658.899	1366.062
659.027	1363.454
659.155	1365.794
659.283	1354.990
659.412	1352.649
659.540	1352.052
659.668	1351.247
659.796	1338.227
659.924	1356.680
660.052	1339.680
660.180	1325.907
660.308	1336.268
660.437	1325.835
660.565	1334.258
660.693	1323.918
660.821	1321.825
660.949	1336.474
661.077	1321.794
661.205	1314.031
661.333	1310.330
661.462	1321.825
661.590	1325.392
661.718	1311.072
661.846	1312.969
661.974	1305.309
662.102	1296.928
662.230	1304.216
662.358	1299.454
662.487	1293.155
662.615	1298.113
662.743	1298.670
662.871	1287.010
662.999	1292.340
663.127	1286.649
663.255	1273.206
663.383	1285.722
663.512	1277.361
663.640	1294.784
663.768	1270.660
663.896	1279.299
664.024	1286.041
664.152	1267.753
664.280	1271.144
664.408	1262.784
664.537	1265.918
664.665	1261.794
664.793	1248.804
664.921	1245.000
665.049	1256.722
665.177	1259.309
665.305	1251.918
665.433	1250.196
665.562	1254.227
665.690	1254.722
665.818	1247.608
665.946	1249.546
666.074	1239.938
666.202	1242.309
666.330	1232.557
666.458	1238.381
666.587	1230.216
666.715	1237.289
666.843	1229.423
666.971	1227.959
667.099	1232.732
667.227	1229.268
667.355	1219.392
667.483	1216.608
667.612	1210.082
667.740	1216.660
667.868	1215.216
667.996	1214.443
668.124	1206.577
668.252	1213.278
668.380	1204.402
668.508	1220.742
668.637	1200.814
668.765	1201.814
668.893	1212.711
669.021	1191.278
669.149	1197.835
669.277	1194.598
669.405	1185.196
669.533	1184.784
669.662	1183.052
669.790	1178.825
669.918	1173.515
670.046	1179.021
670.174	1178.340
670.302	1172.464
670.430	1159.412
670.558	1167.041
670.687	1165.557
670.815	1152.825
670.943	1154.278
671.071	1153.082
671.199	1154.907
671.327	1153.598
671.455	1148.072
671.583	1148.113
671.712	1132.876
671.840	1143.577
671.968	1127.753
672.096	1123.165
672.224	1129.227
672.352	1121.876
672.480	1119.062
672.608	1114.897
672.737	1097.876
672.865	1102.546
672.993	1093.680
673.121	1107.629
673.249	1095.010
673.377	1091.835
673.505	1088.309
673.633	1084.649
673.762	1074.804
673.890	1085.505
674.018	1080.959
674.146	1072.031
674.274	1076.371
674.402	1071.196
674.530	1068.536
674.658	1070.010
674.787	1063.227
674.915	1062.969
675.043	1057.485
675.171	1045.072
675.299	1045.155
675.427	1037.309
675.555	1040.814
675.683	1036.144
675.812	1028.629
675.940	1024.443
676.068	1022.031
676.196	1022.680
676.324	1012.206
676.452	1014.351
676.580	1020.227
676.708	1013.660
676.837	1011.062
676.965	1004.588
677.093	998.979
677.221	996.691
677.349	993.804
677.477	992.907
677.605	992.794
677.733	991.598
677.862	983.608
677.990	978.876
678.118	975.041
678.246	970.866
678.374	967.340
678.502	966.887
678.630	963.186
678.758	959.041
678.887	958.773
679.015	967.340
679.143	953.804
679.271	946.845
679.399	955.175
679.527	939.124
679.655	938.660
679.783	938.825
679.912	931.784
680.040	937.196
680.168	931.856
680.296	923.732
680.424	925.763
680.552	916.979
680.680	922.134
680.808	918.804
680.937	915.794
681.065	919.216
681.193	906.320
681.321	916.649
681.449	902.454
681.577	901.629
681.705	899.134
681.833	897.062
681.962	892.567
682.090	893.443
682.218	891.144
682.346	897.918
682.474	895.557
682.602	889.443
682.730	889.010
682.858	887.216
682.987	881.464
683.115	878.546
683.243	875.959
683.371	867.742
683.499	867.062
683.627	877.938
683.755	867.907
683.883	872.464
684.012	861.052
684.140	858.072
684.268	854.557
684.396	854.608
684.524	852.670
684.652	863.495
684.780	866.567
684.908	856.649
685.037	854.082
685.165	840.825
685.293	851.505
685.421	848.691
685.549	849.866
685.677	848.186
685.805	838.031
685.933	846.680
686.062	835.629
686.190	841.732
686.318	841.433
686.446	840.990
686.574	826.093
686.702	837.402
686.830	837.443
686.958	835.608
687.087	838.186
687.215	828.763
687.343	835.464
687.471	833.567
687.599	819.979
687.727	821.546
687.855	822.619
687.983	819.402
688.112	819.361
688.240	813.278
688.368	814.392
688.496	812.340
688.624	802.536
688.752	807.845
688.880	809.268
689.008	797.959
689.137	808.433
689.265	803.443
689.393	799.052
689.521	799.175
689.649	792.227
689.777	799.371
689.905	788.680
690.033	792.660
690.162	781.794
690.290	782.278
690.418	781.227
690.546	786.495
690.674	787.959
690.802	767.103
690.930	771.299
691.058	763.814
691.187	767.763
691.315	772.196
691.443	767.423
691.571	759.247
691.699	757.371
691.827	759.546
691.955	748.454
692.083	760.196
692.212	744.134
692.340	751.753
692.468	732.732
692.596	736.804
692.724	737.866
692.852	737.268
692.980	742.639
693.108	734.454
693.237	727.794
693.365	728.485
693.493	722.835
693.621	723.670
693.749	721.216
693.877	718.804
694.005	717.330
694.133	718.155
694.262	712.010
694.390	709.784
694.518	704.629
694.646	701.340
694.774	706.639
694.902	692.227
695.030	707.990
695.158	700.495
695.287	694.732
695.415	691.320
695.543	693.536
695.671	687.794
695.799	683.134
695.927	683.536
696.055	680.165
696.183	694.773
696.312	677.948
696.440	680.309
696.568	680.577
696.696	677.175
696.824	672.381
696.952	672.907
697.080	664.021
697.208	672.021
697.337	660.412
697.465	664.639
697.593	660.175
697.721	656.082
697.849	660.454
697.977	655.402
698.105	655.742
698.233	657.773
698.362	647.206
698.490	653.948
698.618	649.722
698.746	637.041
698.874	638.670
699.002	644.598
699.130	642.536
699.258	637.938
699.387	632.113
699.515	626.278
699.643	634.134
699.771	628.773
699.899	626.258
700.027	630.268
700.155	624.577
700.283	622.495
700.412	620.577
700.540	617.814
700.668	614.268
700.796	610.062
700.924	607.289
701.052	613.381
701.180	605.969
701.308	594.216
701.437	600.402
701.565	604.072
701.693	598.258
701.821	594.505
701.949	596.206
702.077	589.866
702.205	587.062
702.333	588.309
702.462	583.866
702.590	582.990
702.718	587.196
702.846	579.649
702.974	571.041
703.102	569.103
703.230	577.835
703.358	568.763
703.487	565.804
703.615	557.454
703.743	552.196
703.871	554.237
703.999	550.835
704.127	555.082
704.255	550.979
704.383	546.113
704.512	543.093
704.640	542.557
704.768	540.928
704.896	539.680
705.024	538.979
705.152	546.103
705.280	530.639
705.408	531.381
705.537	534.876
705.665	536.433
705.793	526.309
705.921	525.928
706.049	523.598
706.177	523.629
706.305	520.598
706.433	515.412
706.562	509.175
706.690	513.093
706.818	509.330
706.946	508.041
707.074	501.093
707.202	498.856
707.330	501.763
707.458	498.649
707.587	498.557
707.715	495.536
707.843	492.247
707.971	492.670
708.099	487.144
708.227	481.526
708.355	488.052
708.483	483.866
708.612	483.196
708.740	482.979
708.868	479.402
708.996	482.155
709.124	480.320
709.252	476.763
709.380	473.113
709.508	467.979
709.637	466.175
709.765	468.206
709.893	462.010
710.021	469.289
710.149	460.526
710.277	465.701
710.405	462.907
710.533	465.670
710.662	455.918
710.790	454.742
710.918	454.196
711.046	461.639
711.174	456.608
711.302	452.546
711.430	455.629
711.558	458.216
711.687	445.000
711.815	447.031
711.943	446.402
712.071	442.351
712.199	445.320
712.327	437.608
712.455	440.227
712.583	444.990
712.712	439.546
712.840	436.515
712.968	433.670
713.096	436.567
713.224	435.268
713.352	430.526
713.480	438.330
713.608	431.526
713.737	429.299
713.865	427.526
713.993	426.711
714.121	423.062
714.249	425.072
714.377	422.557
714.505	425.546
714.633	417.845
714.762	415.536
714.890	421.165
715.018	422.082
715.146	416.619
715.274	415.887
715.402	409.474
715.530	410.052
715.658	408.660
715.787	411.897
715.915	409.835
716.043	411.598
716.171	413.000
716.299	408.722
716.427	402.660
716.555	401.227
716.683	403.340
716.812	399.433
716.940	403.959
717.068	402.021
717.196	396.928
717.324	397.443
717.452	392.784
717.580	391.660
717.708	396.711
717.837	389.515
717.965	389.732
718.093	387.588
718.221	385.784
718.349	386.113
718.477	390.515
718.605	385.959
718.733	384.887
718.862	382.948
718.990	382.021
719.118	378.577
719.246	381.763
719.374	377.371
719.502	379.216
719.630	376.299
719.758	374.062
719.887	371.485
720.015	373.979
720.143	372.959
720.271	373.619
720.399	368.000
720.527	365.237
720.655	370.515
720.783	366.794
720.912	362.959
721.040	360.948
721.168	365.680
721.296	358.216
721.424	359.825
721.552	358.598
721.680	357.979
721.808	356.639
721.937	352.340
722.065	351.969
722.193	355.062
722.321	350.835
722.449	347.856
722.577	345.165
722.705	344.938
722.833	348.948
722.962	344.546
723.090	344.278
723.218	342.103
723.346	339.237
723.474	343.969
723.602	338.082
723.730	338.691
723.858	336.959
723.987	337.351
724.115	330.247
724.243	330.845
724.371	332.474
724.499	328.443
724.627	330.588
724.755	328.948
724.883	330.124
725.012	325.794
725.140	324.041
725.268	326.691
725.396	321.268
725.524	322.031
725.652	320.928
725.780	319.959
725.908	321.711
726.037	319.237
726.165	315.928
726.293	311.546
726.421	313.093
726.549	315.918
726.677	313.464
726.805	312.361
726.933	308.763
727.062	310.165
727.190	303.402
727.318	306.866
727.446	311.732
727.574	307.505
727.702	306.309
727.830	308.567
727.958	305.320
728.087	306.299
728.215	296.052
728.343	300.093
728.471	295.526
728.599	299.753
728.727	296.299
728.855	297.278
728.983	295.845
729.112	293.722
729.240	293.928
729.368	291.361
729.496	294.660
729.624	295.062
729.752	296.660
729.880	291.938
730.008	289.144
730.137	287.144
730.265	285.814
730.393	287.588
730.521	284.258
730.649	284.876
730.777	279.433
730.905	282.660
731.033	281.144
731.162	282.361
731.290	284.784
731.418	279.186
731.546	275.814
731.674	275.856
731.802	276.464
731.930	281.021
732.058	274.289
732.187	278.485
732.315	276.433
732.443	275.608
732.571	273.773
732.699	273.732
732.827	273.371
732.955	274.165
733.083	267.247
733.212	269.072
733.340	269.412
733.468	266.990
733.596	266.485
733.724	268.742
733.852	261.691
733.980	261.351
734.108	262.320
734.237	259.134
734.365	255.959
734.493	262.062
734.621	261.526
734.749	261.577
734.877	257.155
735.005	257.371
735.133	257.660
735.262	259.639
735.390	252.649
735.518	252.072
735.646	251.392
735.774	255.144
735.902	250.433
736.030	251.825
736.158	254.691
736.287	253.010
736.415	256.216
736.543	253.412
736.671	248.423
736.799	248.887
736.927	246.474
737.055	247.515
737.183	244.526
737.312	247.320
737.440	242.701
737.568	253.856
737.696	244.680
737.824	245.299
737.952	243.588
738.080	247.784
738.208	244.897
738.337	241.278
738.465	243.082
738.593	243.433
738.721	239.474
738.849	241.969
738.977	238.371
739.105	239.928
739.233	237.454
739.362	235.670
739.490	234.124
739.618	236.093
739.746	228.804
739.874	236.804
740.002	238.247
740.130	231.052
740.258	235.969
740.387	234.361
740.515	231.072
740.643	232.691
740.771	232.814
740.899	227.010
741.027	226.299
741.155	227.959
741.283	227.103
741.412	225.495
741.540	225.485
741.668	221.175
741.796	222.959
741.924	224.763
742.052	223.216
742.180	222.052
742.308	223.021
742.437	219.227
742.565	220.959
742.693	220.423
742.821	216.546
742.949	218.216
743.077	218.134
743.205	218.041
743.333	216.680
743.462	220.041
743.590	213.701
743.718	214.928
743.846	213.722
743.974	216.619
744.102	213.196
744.230	212.742
744.358	213.340
744.487	212.918
744.615	209.278
744.743	212.165
744.871	205.856
744.999	208.041
745.127	210.577
745.255	205.825
745.383	205.835
745.512	205.742
745.640	205.103
745.768	209.928
745.896	201.268
746.024	203.887
746.152	207.474
746.280	207.546
746.408	203.299
746.537	204.454
746.665	208.093
746.793	201.732
746.921	206.649
747.049	205.062
747.177	198.887
747.305	197.907
747.433	200.474
747.562	200.515
747.690	196.866
747.818	199.577
747.946	197.856
748.074	197.887
748.202	198.093
748.330	195.990
748.458	200.227
748.587	196.103
748.715	195.062
748.843	191.845
748.971	195.722
749.099	190.918
749.227	193.247
749.355	192.474
749.483	195.299
749.612	191.340
749.740	189.000
749.868	190.505
749.996	190.268
750.124	189.918
750.252	189.794
750.380	190.082
750.508	187.979
750.637	187.258
750.765	184.979
750.893	186.577
751.021	183.361
751.149	190.309
751.277	187.134
751.405	186.979
751.533	186.567
751.662	188.691
751.790	186.237
751.918	189.577
752.046	184.454
752.174	182.258
752.302	186.186
752.430	181.062
752.558	183.546
752.687	178.289
752.815	183.402
752.943	179.526
753.071	182.918
753.199	180.670
753.327	177.845
753.455	179.856
753.583	177.722
753.712	179.278
753.840	176.711
753.968	182.608
754.096	174.443
754.224	175.691
754.352	175.216
754.480	174.773
754.608	177.876
754.737	172.031
754.865	177.680
754.993	176.835
755.121	175.845
755.249	172.753
755.377	170.732
755.505	173.485
755.633	176.175
755.762	170.052
755.890	174.227
756.018	169.041
756.146	171.536
756.274	168.464
756.402	170.588
756.530	167.969
756.658	172.320
756.787	171.412
756.915	168.381
757.043	169.062
757.171	170.680
757.299	168.062
757.427	165.062
757.555	164.660
757.683	165.361
757.812	170.062
757.940	166.701
758.068	167.134
758.196	167.041
758.324	165.969
758.452	162.299
758.580	161.124
758.708	167.577
758.837	164.052
758.965	164.969
759.093	161.742
759.221	163.010
759.349	164.289
759.477	163.619
759.605	160.175
759.733	163.711
759.862	160.619
759.990	158.309
760.118	160.247
760.246	157.990
760.374	155.670
760.502	155.794
760.630	155.979
760.758	157.887
760.887	155.959
761.015	153.000
761.143	153.588
761.271	156.907
761.399	153.588
761.527	156.041
761.655	153.588
761.783	155.454
761.912	153.619
762.040	153.918
762.168	154.567
762.296	154.062
762.424	152.495
762.552	150.278
762.680	148.608
762.808	151.072
762.937	150.794
763.065	148.082
763.193	151.794
763.321	151.216
763.449	149.897
763.577	149.464
763.705	148.155
763.833	152.515
763.962	147.381
764.090	147.351
764.218	149.351
764.346	148.763
764.474	146.474
764.602	147.196
764.730	148.113
764.858	145.041
764.987	145.753
765.115	145.814
765.243	145.711
765.371	144.474
765.499	144.402
765.627	143.701
765.755	144.722
765.883	141.732
766.012	145.907
766.140	143.340
766.268	143.608
766.396	145.722
766.524	143.371
766.652	140.608
766.780	140.474
766.908	141.165
767.037	142.392
767.165	139.670
767.293	143.784
767.421	139.515
767.549	141.392
767.677	141.784
767.805	141.041
767.933	140.155
768.062	140.155
768.190	139.423
768.318	142.010
768.446	141.155
768.574	138.680
768.702	141.124
768.830	138.515
768.958	138.216
769.087	138.495
769.215	141.804
769.343	138.237
769.471	137.598
769.599	140.000
769.727	138.918
769.855	138.608
769.983	133.753
770.112	137.619
770.240	138.103
770.368	137.567
770.496	137.485
770.624	136.979
770.752	140.247
770.880	136.814
771.008	138.546
771.137	137.639
771.265	135.567
771.393	138.505
771.521	136.835
771.649	137.505
771.777	135.103
771.905	136.103
772.033	138.268
772.162	135.567
772.290	132.526
772.418	134.928
772.546	136.629
772.674	137.711
772.802	133.598
772.930	132.701
773.058	133.557
773.187	131.289
773.315	137.186
773.443	132.165
773.571	134.113
773.699	132.536
773.827	131.753
773.955	134.515
774.083	133.876
774.212	133.845
774.340	135.381
774.468	130.649
774.596	132.938
774.724	133.010
774.852	131.052
774.980	132.639
775.108	129.598
775.237	131.186
775.365	131.216
775.493	133.082
775.621	131.000
775.749	129.639
775.877	133.113
776.005	132.309
776.133	132.093
776.262	131.680
776.390	130.000
776.518	130.454
776.646	131.278
776.774	129.227
776.902	128.845
777.030	129.433
777.158	130.041
777.287	129.660
777.415	130.052
777.543	130.814
777.671	127.794
777.799	127.887
777.927	129.639
778.055	130.825
778.183	129.412
778.312	128.825
778.440	128.361
778.568	129.196
778.696	127.237
778.824	127.876
778.952	130.021
779.080	128.546
779.208	128.268
779.337	125.113
779.465	126.918
779.593	127.309
779.721	128.165
779.849	125.196
779.977	128.299
780.105	127.206
780.233	126.495
780.362	123.629
780.490	123.660
780.618	126.660
780.746	125.763
780.874	124.588
781.002	125.031
781.130	125.443
781.258	123.258
781.387	125.320
781.515	124.144
781.643	122.773
781.771	123.742
781.899	124.485
782.027	124.938
782.155	126.103
782.283	121.835
782.412	121.887
782.540	124.938
782.668	124.588
782.796	122.392
782.924	124.041
783.052	122.454
783.180	122.990
783.308	122.990
783.437	122.866
783.565	122.299
783.693	122.278
783.821	124.124
783.949	120.856
784.077	121.660
784.205	120.278
784.333	122.464
784.462	122.320
784.590	124.186
784.718	120.454
784.846	119.794
784.974	120.433
785.102	123.371
785.230	123.856
785.358	120.897
785.487	121.082
785.615	120.237
785.743	119.021
785.871	118.041
785.999	120.784
786.127	119.907
786.255	121.031
786.383	119.351
786.512	119.515
786.640	119.443
786.768	121.474
786.896	120.309
787.024	118.670
787.152	118.361
787.280	119.680
787.408	120.753
787.537	118.670
787.665	119.907
787.793	117.680
787.921	120.134
788.049	119.897
788.177	116.845
788.305	118.052
788.433	118.206
788.562	116.443
788.690	118.639
788.818	117.371
788.946	116.711
789.074	118.918
789.202	117.866
789.330	118.155
789.458	119.052
789.587	117.237
789.715	118.784
789.843	116.928
789.971	117.691
790.099	116.144
790.227	115.557
790.355	115.464
790.483	117.845
790.612	117.144
790.740	118.907
790.868	119.887
790.996	117.567
791.124	116.629
791.252	114.856
791.380	116.773
791.508	113.639
791.637	116.443
791.765	113.546
791.893	113.526
792.021	115.546
792.149	113.845
792.277	114.474
792.405	117.526
792.533	117.093
792.662	113.918
792.790	118.361
792.918	117.505
793.046	113.258
793.174	114.546
793.302	114.495
793.430	116.876
793.558	116.433
793.687	116.093
793.815	113.474
793.943	114.423
794.071	113.392
794.199	112.639
794.327	113.536
794.455	113.392
794.583	112.794
794.712	112.649
794.840	112.309
794.968	113.258
795.096	112.876
795.224	113.289
795.352	112.845
795.480	112.784
795.608	113.763
795.737	115.691
795.865	113.485
795.993	113.351
796.121	114.309
796.249	113.103
796.377	111.979
796.505	113.392
796.633	114.330
796.762	111.485
796.890	113.495
797.018	112.361
797.146	110.969
797.274	111.186
797.402	111.237
797.530	111.866
797.658	112.742
797.787	112.196
797.915	112.402
798.043	110.082
798.171	112.134
798.299	109.567
798.427	110.031
798.555	111.361
798.683	110.464
798.812	109.784
798.940	110.412
799.068	111.196
799.196	110.495
799.324	110.443
799.452	110.505
799.580	109.701
799.708	110.969
799.837	110.021
799.965	108.990
800.093	110.536
800.221	110.866
800.349	111.124
800.477	110.113
800.605	110.557
800.733	108.969
800.862	109.711
800.990	110.495
801.118	110.351
801.246	109.052
801.374	108.969
801.502	110.052
801.630	110.093
801.758	110.258
801.887	109.010
802.015	108.845
802.143	108.732
802.271	109.371
802.399	109.505
802.527	109.072
802.655	109.753
802.783	109.454
802.912	108.918
803.040	109.010
803.168	108.216
803.296	110.134
803.424	109.918
803.552	109.454
803.680	107.938
803.808	108.206
803.937	107.526
804.065	108.495
804.193	107.454
804.321	107.340
804.449	109.237
804.577	107.175
804.705	108.588
804.833	107.278
804.962	106.093
805.090	106.711
805.218	107.959
805.346	108.845
805.474	108.196
805.602	108.124
805.730	107.361
805.858	107.649
805.987	108.010
806.115	108.742
806.243	107.495
806.371	107.186
806.499	107.526
806.627	108.443
806.755	108.433
806.883	106.289
807.012	106.918
807.140	107.371
807.268	106.320
807.396	107.443
807.524	107.433
807.652	105.887
807.780	106.186
807.908	104.804
808.037	104.402
808.165	106.784
808.293	106.330
808.421	106.639
808.549	106.330
808.677	107.433
808.805	105.918
808.933	106.299
809.062	106.670
809.190	107.907
809.318	105.969
809.446	105.320
809.574	105.763
809.702	106.113
809.830	106.268
809.958	105.794
810.087	106.134
810.215	105.938
810.343	107.010
810.471	106.093
810.599	105.330
810.727	107.526
810.855	104.928
810.983	107.340
811.112	107.103
811.240	105.031
811.368	105.371
811.496	105.938
811.624	105.505
811.752	104.887
811.880	105.031
812.008	104.629
812.137	104.526
812.265	104.753
812.393	102.680
812.521	105.072
812.649	105.381
812.777	105.557
812.905	104.639
813.033	103.557
813.162	104.103
813.290	105.608
813.418	105.340
813.546	106.247
813.674	104.175
813.802	102.722
813.930	103.773
814.058	104.041
814.187	105.268
814.315	105.021
814.443	104.443
814.571	103.443
814.699	104.742
814.827	103.670
814.955	104.268
815.083	104.856
815.212	104.454
815.340	104.381
815.468	103.010
815.596	104.526
815.724	103.619
815.852	102.825
815.980	104.309
816.108	104.979
816.237	104.711
816.365	103.918
816.493	104.052
816.621	103.320
816.749	104.412
816.877	103.845
817.005	104.227
817.133	104.948
817.262	104.711
817.390	104.660
817.518	104.619
817.646	103.464
817.774	103.701
817.902	104.753
818.030	103.876
818.158	103.474
818.287	104.670
818.415	104.701
818.543	102.155
818.671	103.196
818.799	102.619
818.927	102.320
819.055	102.557
819.183	105.495
819.312	103.443
819.440	103.041
819.568	104.247
819.696	103.351
819.824	103.155
819.952	102.866
820.080	103.732
820.208	102.804
820.337	104.072
820.465	102.660
820.593	103.825
820.721	102.619
820.849	102.155
820.977	102.567
821.105	104.876
821.233	103.155
821.362	103.423
821.490	104.010
821.618	104.000
821.746	101.660
821.874	101.216
822.002	102.247
822.130	102.361
822.258	101.608
822.387	101.423
822.515	102.546
822.643	102.392
822.771	101.052
822.899	101.742
823.027	102.062
823.155	101.856
823.283	100.990
823.412	103.742
823.540	102.082
823.668	102.392
823.796	102.072
823.924	102.629
824.052	100.701
824.180	101.186
824.308	102.103
824.437	100.948
824.565	101.876
824.693	101.598
824.821	102.134
824.949	102.742
825.077	101.629
825.205	101.093
825.333	101.062
825.462	101.876
825.590	100.546
825.718	100.155
825.846	102.804
825.974	100.804
826.102	100.299
826.230	100.794
826.358	102.052
826.487	101.361
826.615	100.000
826.743	101.670
826.871	102.454
826.999	103.062
827.127	101.959
827.255	99.876
827.383	102.144
827.512	100.938
827.640	102.237
827.768	101.773
827.896	101.021
828.024	101.897
828.152	100.701
828.280	101.948
828.408	101.588
828.537	101.443
828.665	101.340
828.793	100.773
828.921	100.268
829.049	100.990
829.177	100.876
829.305	102.258
829.433	99.196
829.562	100.258
829.690	101.990
829.818	101.474
829.946	100.763
830.074	99.897
830.202	102.660
830.330	101.144
830.458	101.175
830.587	99.907
830.715	101.268
830.843	101.144
830.971	100.845
831.099	99.103
831.227	101.361
831.355	100.093
831.483	101.856
831.612	101.515
831.740	102.495
831.868	101.371
831.996	101.268
832.124	103.557
832.252	101.258
832.380	101.268
832.508	101.825
832.637	101.629
832.765	101.113
832.893	100.330
833.021	100.206
833.149	100.773
833.277	101.412
833.405	101.691
833.533	100.237
833.662	100.577
833.790	100.536
833.918	102.093
834.046	101.907
834.174	101.443
834.302	100.206
834.430	99.794
834.558	101.216
834.687	101.423
834.815	100.856
834.943	100.433
835.071	99.505
835.199	100.680
835.327	100.990
835.455	99.351
835.583	100.763
835.712	100.309
835.840	101.309
835.968	100.804
836.096	100.794
836.224	100.897
836.352	102.247
836.480	102.010
836.608	100.918
836.737	101.000
836.865	100.979
836.993	100.165
837.121	100.402
837.249	99.907
837.377	101.258
837.505	99.474
837.633	100.258
837.762	100.103
837.890	99.887
838.018	99.990
838.146	100.402
838.274	100.062
838.402	101.041
838.530	100.351
838.658	99.928
838.787	100.041
838.915	100.320
839.043	100.464
839.171	99.742
839.299	100.546
839.427	100.320
839.555	100.567
839.683	101.155
839.812	101.258
839.940	99.845
840.068	100.969
840.196	100.093
840.324	101.361
840.452	101.495
840.580	100.093
840.708	101.247
840.837	101.093
840.965	100.670
841.093	101.103
841.221	101.113
841.349	100.763
841.477	101.454
841.605	99.856
841.733	100.309
841.862	101.443
841.990	100.536
842.118	101.289
842.246	101.237
842.374	99.948
842.502	100.165
842.630	99.495
842.758	100.371
842.887	99.175
843.015	100.052
843.143	100.474
843.271	99.866
843.399	99.567
843.527	99.969
843.655	100.165
843.783	100.907
843.912	100.258
844.040	100.619
844.168	100.546
844.296	100.845
844.424	99.113
844.552	98.979
844.680	99.402
844.808	101.165
844.937	100.031
845.065	100.021
845.193	100.443
845.321	99.289
845.449	100.010
845.577	100.351
845.705	99.402
845.833	101.608
845.962	101.103
846.090	99.619
846.218	98.794
846.346	100.649
846.474	99.948
846.602	99.845
846.730	100.186
846.858	99.495
846.987	99.515
847.115	101.144
847.243	100.639
847.371	100.557
847.499	99.165
847.627	99.371
847.755	99.794
847.883	101.010
848.012	99.753
848.140	99.443
848.268	99.505
848.396	100.237
848.524	101.485
848.652	101.443
848.780	98.979
848.908	102.309
849.037	100.711
849.165	100.289
849.293	98.546
849.421	101.299
849.549	100.773
849.677	98.608
849.805	100.876
849.933	100.454
850.062	100.485
850.190	99.351
850.318	98.691
850.446	101.371
850.574	99.928
850.702	99.701
850.830	99.979
850.958	100.103
851.087	100.660
851.215	101.082
851.343	98.660
851.471	99.433
851.599	98.938
851.727	99.701
851.855	100.062
851.983	100.000
852.112	100.402
852.240	100.186
852.368	100.814
852.496	100.206
852.624	99.289
852.752	98.660
852.880	99.216
853.008	98.938
853.137	99.278
853.265	100.907
853.393	98.959
853.521	99.711
853.649	100.835
853.777	99.103
853.905	98.711
854.033	99.237
854.162	98.918
854.290	99.103
854.418	97.113
854.546	98.340
854.674	99.237
854.802	98.608
854.930	98.907
855.058	99.897
855.187	100.309
855.315	99.557
855.443	99.268
855.571	98.907
855.699	100.237
855.827	99.309
855.955	99.186
856.083	99.247
856.212	100.825
856.340	101.969
856.468	98.237
856.596	99.082
856.724	99.763
856.852	99.794
856.980	98.969
857.108	99.454
857.237	98.887
857.365	98.763
857.493	101.010
857.621	98.629
857.749	98.515
857.877	98.959
858.005	100.763
858.133	98.010
858.262	100.010
858.390	100.454
858.518	99.371
858.646	99.330
858.774	101.577
858.902	100.567
859.030	99.546
859.158	98.443
859.287	98.722
859.415	98.711
859.543	99.320
859.671	100.670
859.799	99.701
859.927	99.371
860.055	100.103
860.183	99.330
860.312	99.474
860.440	99.113
860.568	100.165
860.696	99.371
860.824	99.186
860.952	98.196
861.080	100.474
861.208	100.495
861.337	99.340
861.465	99.155
861.593	99.206
861.721	99.515
861.849	99.505
861.977	98.649
862.105	99.680
862.233	99.825
862.362	99.918
862.490	99.732
862.618	99.546
862.746	99.897
862.874	98.794
863.002	99.897
863.130	99.216
863.258	99.412
863.387	98.856
863.515	100.165
863.643	99.948
863.771	99.691
863.899	99.649
864.027	100.918
864.155	100.371
864.283	99.196
864.412	101.144
864.540	99.639
864.668	99.381
864.796	100.165
864.924	99.649
865.052	99.866
865.180	100.959
865.308	99.144
865.437	98.732
865.565	99.887
865.693	99.928
865.821	99.237
865.949	101.186
866.077	101.619
866.205	98.577
866.333	99.381
866.462	99.474
866.590	98.608
866.718	100.031
866.846	100.464
866.974	101.515
867.102	98.876
867.230	98.639
867.358	99.361
867.487	99.845
867.615	99.649
867.743	100.701
867.871	101.010
867.999	100.835
868.127	99.505
868.255	99.464
868.383	99.969
868.512	100.660
868.640	100.227
868.768	101.423
868.896	99.979
869.024	99.773
869.152	100.526
869.280	100.103
869.408	100.258
869.537	100.227
869.665	100.763
869.793	100.268
869.921	99.505
870.049	100.979
870.177	101.351
870.305	100.361
870.433	100.175
870.562	101.237
870.690	99.062
870.818	99.928
870.946	100.464
871.074	99.753
871.202	98.577
871.330	100.629
871.458	101.021
871.587	100.381
871.715	98.794
871.843	99.237
871.971	100.278
872.099	99.340
872.227	100.289
872.355	99.258
872.483	99.495
872.612	100.031
872.740	99.340
872.868	99.412
872.996	98.711
873.124	100.845
873.252	100.598
873.380	99.361
873.508	100.814
873.637	100.546
873.765	100.082
873.893	100.629
874.021	101.186
874.149	99.887
874.277	100.907
874.405	100.928
874.533	102.546
874.662	101.361
874.790	100.959
874.918	100.691
875.046	99.918
875.174	100.278
875.302	98.876
875.430	99.845
875.558	98.691
875.687	99.794
875.815	101.093
875.943	100.567
876.071	100.598
876.199	101.330
876.327	99.897
876.455	101.216
876.583	99.835
876.712	98.918
876.840	98.474
876.968	100.577
877.096	100.918
877.224	100.691
877.352	98.784
877.480	101.258
877.608	100.443
877.737	99.474
877.865	97.784
877.993	99.515
878.121	100.485
878.249	101.567
878.377	100.309
878.505	99.371
878.633	100.546
878.762	100.567
878.890	99.928
879.018	99.320
879.146	101.186
879.274	100.443
879.402	101.629
879.530	99.835
879.658	100.948
879.787	99.866
879.915	100.031
880.043	101.381
880.171	100.474
880.299	100.763
880.427	99.474
880.555	102.155
880.683	101.237
880.812	99.691
880.940	99.794
881.068	100.216
881.196	100.454
881.324	101.639
881.452	99.876
881.580	100.278
881.708	100.402
881.837	101.072
881.965	99.113
882.093	100.247
882.221	100.155
882.349	98.742
882.477	100.845
882.605	102.093
882.733	100.495
882.862	102.175
882.990	99.619
883.118	101.155
883.246	100.237
883.374	100.845
883.502	99.423
883.630	100.907
883.758	100.680
883.887	100.041
884.015	100.918
884.143	100.763
884.271	100.938
884.399	100.433
884.527	100.258
884.655	100.495
884.783	102.010
884.912	101.041
885.040	100.196
885.168	100.784
885.296	100.371
885.424	100.464
885.552	99.948
885.680	100.371
885.808	100.031
885.937	101.371
886.065	99.670
886.193	100.402
886.321	100.515
886.449	101.897
886.577	100.515
886.705	99.928
886.833	100.959
886.962	101.742
887.090	100.649
887.218	100.010
887.346	99.598
887.474	101.732
887.602	100.804
887.730	100.062
887.858	100.598
887.987	101.175
888.115	99.804
888.243	101.423
888.371	101.443
888.499	102.392
888.627	100.454
888.755	98.753
888.883	100.670
889.012	100.711
889.140	99.598
889.268	98.887
889.396	99.010
889.524	100.309
889.652	100.825
889.780	100.206
889.908	100.412
890.037	100.876
890.165	99.835
890.293	100.897
890.421	100.165
890.549	101.031
890.677	99.629
890.805	100.268
890.933	100.258
891.062	100.536
891.190	101.299
891.318	101.691
891.446	101.247
891.574	99.660
891.702	100.124
891.830	101.381
891.958	101.155
892.087	101.186
892.215	101.536
892.343	101.742
892.471	99.485
892.599	101.392
892.727	101.464
892.855	102.227
892.983	101.753
893.112	99.866
893.240	101.247
893.368	101.619
893.496	102.412
893.624	100.165
893.752	100.227
893.880	99.340
894.008	101.103
894.137	101.021
894.265	101.979
894.393	100.649
894.521	100.670
894.649	101.289
894.777	100.804
894.905	100.691
895.033	102.423
895.162	100.660
895.290	101.495
895.418	101.876
895.546	101.330
895.674	100.814
895.802	100.557
895.930	100.247
896.058	100.361
896.187	101.557
896.315	101.495
896.443	101.206
896.571	101.763
896.699	101.227
896.827	100.495
896.955	100.546
897.083	101.536
897.212	101.619
897.340	99.227
897.468	101.052
897.596	99.763
897.724	99.928
897.852	100.979
897.980	100.866
898.108	99.485
898.237	100.412
898.365	101.423
898.493	101.072
898.621	100.402
898.749	100.268
898.877	100.443
899.005	99.515
899.133	101.546
899.262	101.392
899.390	100.371
899.518	100.742
899.646	100.990
899.774	101.144
899.902	100.557
900.030	101.443
900.158	100.546
900.287	100.505
900.415	100.856
900.543	101.165
900.671	102.010
900.799	101.526
900.927	100.361
901.055	99.206
901.183	100.103
901.312	100.227
901.440	101.825
901.568	101.381
901.696	100.918
901.824	101.093
901.952	101.918
902.080	100.557
902.208	100.660
902.337	101.196
902.465	100.103
902.593	101.784
902.721	101.639
902.849	101.598
902.977	100.990
903.105	101.093
903.233	100.711
903.362	101.443
903.490	99.835
903.618	100.804
903.746	100.155
903.874	101.433
904.002	102.485
904.130	101.371
904.258	101.175
904.387	100.309
904.515	101.732
904.643	100.918
904.771	101.845
904.899	99.938
905.027	100.907
905.155	100.113
905.283	101.186
905.412	101.856
905.540	101.021
905.668	100.670
905.796	98.722
905.924	101.320
906.052	101.113
906.180	101.454
906.308	99.814
906.437	99.237
906.565	101.299
906.693	101.320
906.821	99.732
906.949	100.866
907.077	100.608
907.205	102.381
907.333	100.649
907.462	101.845
907.590	101.505
907.718	101.320
907.846	101.165
907.974	102.021
908.102	100.784
908.230	100.144
908.358	100.732
908.487	99.144
908.615	101.175
908.743	100.639
908.871	101.670
908.999	100.680
909.127	100.361
909.255	99.505
909.383	99.515
909.512	101.536
909.640	100.052
909.768	102.206
909.896	101.247
910.024	101.113
910.152	101.773
910.280	102.722
910.408	101.742
910.537	102.268
910.665	100.722
910.793	101.608
910.921	100.670
911.049	101.320
911.177	100.577
911.305	100.588
911.433	100.938
911.562	102.268
911.690	101.876
911.818	100.814
911.946	101.835
912.074	101.876
912.202	101.134
912.330	101.588
912.458	101.856
912.587	100.794
912.715	100.711
912.843	101.320
912.971	102.186
913.099	101.320
913.227	101.660
913.355	101.093
913.483	101.361
913.612	101.134
913.740	101.165
913.868	100.485
