sample8v_at_750.00nm_cut_at_1060.50Y_01.dat
19.06.2023
11:13:36
cut middle at Y: 1060.50
top cursor: 1109 down cursor: 1012 mean of: 97 lines , 2560 datapoints
wavelength(nm)	intensity[arb. units]
585.996	971.103
586.124	938.340
586.252	936.464
586.380	928.000
586.508	935.278
586.637	943.041
586.765	931.897
586.893	945.546
587.021	941.763
587.149	944.742
587.277	948.495
587.405	948.392
587.533	940.959
587.662	946.680
587.790	949.495
587.918	958.433
588.046	947.381
588.174	951.155
588.302	960.093
588.430	952.010
588.558	959.608
588.687	960.041
588.815	963.289
588.943	966.474
589.071	952.660
589.199	960.134
589.327	963.907
589.455	952.742
589.583	966.742
589.712	970.361
589.840	962.206
589.968	963.639
590.096	966.381
590.224	974.691
590.352	961.856
590.480	965.742
590.608	972.361
590.737	962.381
590.865	969.928
590.993	973.320
591.121	968.227
591.249	970.794
591.377	966.000
591.505	973.268
591.633	972.732
591.762	982.175
591.890	976.093
592.018	978.258
592.146	980.031
592.274	984.433
592.402	972.381
592.530	978.361
592.658	982.165
592.787	980.567
592.915	982.216
593.043	980.598
593.171	982.619
593.299	1001.742
593.427	990.320
593.555	1001.237
593.683	983.856
593.812	997.691
593.940	1007.691
594.068	1005.825
594.196	1016.371
594.324	1013.320
594.452	1025.351
594.580	1027.928
594.708	1027.619
594.837	1021.464
594.965	1027.577
595.093	1030.918
595.221	1020.072
595.349	1037.649
595.477	1041.794
595.605	1034.742
595.733	1057.660
595.862	1046.268
595.990	1062.691
596.118	1050.113
596.246	1055.629
596.374	1051.216
596.502	1062.969
596.630	1071.928
596.758	1064.897
596.887	1074.897
597.015	1074.361
597.143	1065.773
597.271	1068.784
597.399	1068.722
597.527	1068.856
597.655	1075.402
597.783	1074.247
597.912	1079.392
598.040	1085.361
598.168	1070.423
598.296	1071.948
598.424	1077.990
598.552	1078.784
598.680	1072.206
598.808	1070.268
598.937	1078.361
599.065	1064.763
599.193	1079.268
599.321	1068.113
599.449	1085.021
599.577	1074.320
599.705	1073.649
599.833	1076.247
599.962	1070.216
600.090	1077.371
600.218	1076.124
600.346	1074.258
600.474	1074.732
600.602	1080.784
600.730	1089.206
600.858	1086.423
600.987	1079.577
601.115	1086.742
601.243	1080.268
601.371	1090.041
601.499	1093.948
601.627	1092.485
601.755	1106.897
601.883	1097.134
602.012	1110.588
602.140	1105.340
602.268	1102.990
602.396	1104.144
602.524	1113.196
602.652	1119.825
602.780	1123.639
602.908	1123.526
603.037	1135.144
603.165	1143.268
603.293	1157.464
603.421	1148.062
603.549	1143.072
603.677	1159.794
603.805	1150.206
603.933	1160.619
604.062	1168.155
604.190	1177.196
604.318	1171.340
604.446	1185.732
604.574	1179.660
604.702	1190.670
604.830	1192.402
604.958	1206.742
605.087	1211.536
605.215	1206.711
605.343	1213.928
605.471	1228.237
605.599	1227.216
605.727	1228.247
605.855	1227.381
605.983	1232.701
606.112	1238.567
606.240	1248.845
606.368	1249.093
606.496	1249.216
606.624	1247.495
606.752	1239.505
606.880	1248.835
607.008	1262.423
607.137	1259.928
607.265	1263.371
607.393	1274.258
607.521	1256.041
607.649	1259.691
607.777	1255.351
607.905	1261.299
608.033	1266.557
608.162	1260.258
608.290	1265.907
608.418	1272.928
608.546	1260.381
608.674	1274.454
608.802	1274.515
608.930	1264.856
609.058	1262.598
609.187	1259.289
609.315	1262.423
609.443	1276.144
609.571	1259.278
609.699	1262.454
609.827	1270.990
609.955	1279.175
610.083	1262.216
610.212	1259.845
610.340	1272.175
610.468	1269.979
610.596	1270.907
610.724	1274.103
610.852	1276.485
610.980	1274.299
611.108	1283.010
611.237	1267.268
611.365	1275.577
611.493	1279.361
611.621	1267.701
611.749	1285.412
611.877	1296.753
612.005	1290.526
612.133	1287.990
612.262	1294.423
612.390	1298.289
612.518	1300.639
612.646	1298.196
612.774	1298.412
612.902	1311.392
613.030	1309.247
613.158	1314.216
613.287	1323.227
613.415	1321.351
613.543	1332.918
613.671	1327.619
613.799	1335.979
613.927	1326.031
614.055	1347.206
614.183	1359.680
614.312	1337.072
614.440	1350.278
614.568	1360.856
614.696	1360.216
614.824	1372.784
614.952	1370.186
615.080	1387.144
615.208	1378.423
615.337	1385.835
615.465	1384.887
615.593	1393.227
615.721	1396.588
615.849	1407.093
615.977	1398.598
616.105	1395.412
616.233	1405.856
616.362	1398.206
616.490	1401.948
616.618	1412.753
616.746	1410.608
616.874	1420.887
617.002	1421.536
617.130	1432.175
617.258	1415.010
617.387	1414.722
617.515	1421.351
617.643	1438.299
617.771	1435.433
617.899	1438.103
618.027	1435.660
618.155	1437.619
618.283	1436.938
618.412	1442.928
618.540	1435.629
618.668	1440.825
618.796	1440.454
618.924	1452.938
619.052	1454.907
619.180	1455.577
619.308	1449.052
619.437	1461.464
619.565	1447.866
619.693	1452.804
619.821	1468.649
619.949	1455.649
620.077	1460.567
620.205	1453.031
620.333	1467.660
620.462	1476.907
620.590	1473.351
620.718	1482.979
620.846	1469.691
620.974	1474.330
621.102	1475.979
621.230	1466.938
621.358	1473.670
621.487	1479.845
621.615	1487.784
621.743	1501.144
621.871	1479.804
621.999	1474.216
622.127	1476.474
622.255	1479.454
622.383	1484.340
622.512	1490.082
622.640	1478.443
622.768	1488.588
622.896	1473.392
623.024	1473.485
623.152	1496.680
623.280	1488.773
623.408	1484.876
623.537	1485.876
623.665	1484.701
623.793	1496.742
623.921	1490.041
624.049	1498.134
624.177	1499.021
624.305	1498.082
624.433	1498.948
624.562	1498.557
624.690	1482.515
624.818	1505.072
624.946	1507.619
625.074	1487.536
625.202	1503.113
625.330	1492.041
625.458	1504.237
625.587	1501.454
625.715	1484.165
625.843	1497.845
625.971	1498.062
626.099	1503.485
626.227	1506.402
626.355	1503.412
626.483	1517.340
626.612	1506.423
626.740	1511.093
626.868	1514.969
626.996	1509.454
627.124	1501.608
627.252	1503.433
627.380	1516.526
627.508	1514.402
627.637	1504.155
627.765	1530.701
627.893	1526.093
628.021	1519.897
628.149	1526.732
628.277	1529.320
628.405	1541.887
628.533	1536.041
628.662	1517.536
628.790	1547.247
628.918	1539.186
629.046	1541.021
629.174	1541.000
629.302	1540.216
629.430	1558.907
629.558	1550.021
629.687	1556.680
629.815	1552.278
629.943	1564.093
630.071	1565.691
630.199	1569.258
630.327	1560.041
630.455	1562.010
630.583	1563.567
630.712	1572.907
630.840	1572.175
630.968	1584.866
631.096	1598.845
631.224	1577.433
631.352	1575.557
631.480	1581.866
631.608	1588.835
631.737	1592.588
631.865	1600.258
631.993	1570.835
632.121	1595.093
632.249	1595.649
632.377	1603.155
632.505	1579.361
632.633	1580.464
632.762	1597.804
632.890	1598.639
633.018	1607.577
633.146	1577.814
633.274	1592.526
633.402	1574.794
633.530	1593.227
633.658	1603.258
633.787	1578.794
633.915	1589.485
634.043	1580.639
634.171	1588.825
634.299	1597.711
634.427	1583.196
634.555	1588.196
634.683	1587.784
634.812	1578.969
634.940	1589.206
635.068	1561.876
635.196	1576.041
635.324	1579.144
635.452	1574.309
635.580	1576.340
635.708	1568.670
635.837	1568.041
635.965	1559.309
636.093	1557.608
636.221	1552.454
636.349	1549.227
636.477	1549.990
636.605	1560.887
636.733	1552.918
636.862	1547.959
636.990	1532.907
637.118	1543.289
637.246	1530.670
637.374	1529.557
637.502	1529.412
637.630	1547.196
637.758	1529.866
637.887	1533.041
638.015	1537.814
638.143	1536.979
638.271	1522.474
638.399	1525.124
638.527	1516.887
638.655	1521.474
638.783	1523.165
638.912	1519.701
639.040	1513.103
639.168	1517.629
639.296	1516.711
639.424	1523.423
639.552	1512.691
639.680	1509.021
639.808	1518.186
639.937	1501.701
640.065	1503.990
640.193	1510.052
640.321	1505.196
640.449	1504.144
640.577	1508.588
640.705	1490.969
640.833	1498.227
640.962	1503.144
641.090	1507.021
641.218	1505.247
641.346	1499.907
641.474	1496.691
641.602	1497.433
641.730	1516.175
641.858	1518.567
641.987	1500.948
642.115	1501.392
642.243	1517.876
642.371	1506.485
642.499	1503.701
642.627	1505.670
642.755	1506.887
642.883	1510.835
643.012	1519.093
643.140	1515.371
643.268	1508.474
643.396	1510.979
643.524	1512.588
643.652	1514.629
643.780	1501.526
643.908	1502.845
644.037	1508.381
644.165	1512.000
644.293	1506.784
644.421	1506.433
644.549	1509.175
644.677	1528.773
644.805	1505.330
644.933	1501.392
645.062	1509.464
645.190	1494.309
645.318	1484.732
645.446	1524.629
645.574	1506.763
645.702	1506.082
645.830	1499.691
645.958	1520.454
646.087	1505.804
646.215	1502.402
646.343	1515.268
646.471	1509.031
646.599	1500.165
646.727	1503.784
646.855	1498.299
646.983	1502.804
647.112	1507.577
647.240	1507.093
647.368	1496.773
647.496	1484.124
647.624	1496.814
647.752	1489.412
647.880	1491.835
648.008	1489.670
648.137	1479.268
648.265	1463.464
648.393	1474.000
648.521	1473.474
648.649	1473.155
648.777	1457.289
648.905	1462.010
649.033	1447.814
649.162	1453.340
649.290	1454.649
649.418	1458.598
649.546	1453.144
649.674	1453.299
649.802	1452.072
649.930	1435.402
650.058	1437.010
650.187	1429.361
650.315	1434.515
650.443	1428.701
650.571	1429.021
650.699	1431.031
650.827	1436.454
650.955	1414.309
651.083	1425.454
651.212	1411.474
651.340	1418.722
651.468	1424.794
651.596	1398.948
651.724	1407.278
651.852	1395.072
651.980	1384.000
652.108	1402.907
652.237	1388.608
652.365	1381.124
652.493	1382.278
652.621	1374.423
652.749	1365.175
652.877	1385.216
653.005	1379.979
653.133	1364.649
653.262	1363.794
653.390	1360.227
653.518	1359.031
653.646	1355.433
653.774	1359.856
653.902	1362.402
654.030	1362.309
654.158	1338.216
654.287	1345.113
654.415	1336.876
654.543	1337.206
654.671	1331.814
654.799	1326.536
654.927	1336.134
655.055	1319.567
655.183	1323.515
655.312	1320.588
655.440	1308.237
655.568	1305.907
655.696	1307.907
655.824	1309.464
655.952	1305.237
656.080	1292.608
656.208	1305.237
656.337	1295.031
656.465	1306.227
656.593	1297.691
656.721	1289.351
656.849	1291.588
656.977	1286.691
657.105	1280.866
657.233	1271.052
657.362	1271.000
657.490	1266.732
657.618	1268.485
657.746	1270.784
657.874	1259.268
658.002	1261.299
658.130	1242.588
658.258	1253.495
658.387	1252.103
658.515	1243.072
658.643	1235.649
658.771	1244.887
658.899	1240.619
659.027	1234.247
659.155	1221.577
659.283	1217.041
659.412	1226.000
659.540	1222.309
659.668	1220.464
659.796	1204.021
659.924	1203.691
660.052	1202.093
660.180	1188.412
660.308	1196.134
660.437	1183.732
660.565	1179.804
660.693	1192.938
660.821	1186.351
660.949	1187.309
661.077	1181.990
661.205	1175.371
661.333	1170.691
661.462	1187.041
661.590	1172.918
661.718	1164.784
661.846	1164.309
661.974	1166.351
662.102	1162.619
662.230	1158.515
662.358	1150.021
662.487	1160.866
662.615	1136.113
662.743	1150.969
662.871	1143.052
662.999	1143.763
663.127	1141.103
663.255	1142.649
663.383	1143.309
663.512	1138.474
663.640	1136.165
663.768	1129.701
663.896	1121.722
664.024	1126.340
664.152	1123.330
664.280	1121.258
664.408	1119.918
664.537	1125.907
664.665	1118.639
664.793	1106.701
664.921	1105.753
665.049	1099.278
665.177	1109.278
665.305	1104.423
665.433	1105.052
665.562	1099.784
665.690	1099.474
665.818	1104.351
665.946	1093.485
666.074	1097.567
666.202	1092.515
666.330	1096.629
666.458	1083.443
666.587	1084.052
666.715	1087.753
666.843	1087.402
666.971	1078.876
667.099	1088.691
667.227	1093.691
667.355	1077.567
667.483	1067.134
667.612	1078.052
667.740	1071.845
667.868	1069.278
667.996	1060.258
668.124	1070.701
668.252	1065.660
668.380	1058.670
668.508	1070.557
668.637	1053.072
668.765	1056.402
668.893	1054.196
669.021	1055.175
669.149	1042.392
669.277	1048.237
669.405	1040.918
669.533	1042.629
669.662	1040.608
669.790	1032.443
669.918	1037.598
670.046	1019.258
670.174	1032.814
670.302	1027.278
670.430	1021.113
670.558	1015.711
670.687	1014.969
670.815	1009.969
670.943	1008.680
671.071	1005.649
671.199	996.443
671.327	1003.247
671.455	997.608
671.583	995.082
671.712	980.433
671.840	978.959
671.968	971.814
672.096	982.619
672.224	974.804
672.352	965.309
672.480	964.990
672.608	966.887
672.737	960.536
672.865	958.175
672.993	961.536
673.121	954.093
673.249	945.629
673.377	949.124
673.505	943.134
673.633	927.598
673.762	923.990
673.890	929.144
674.018	921.010
674.146	918.742
674.274	917.443
674.402	911.216
674.530	904.825
674.658	917.546
674.787	896.515
674.915	901.041
675.043	895.526
675.171	896.619
675.299	889.608
675.427	887.649
675.555	888.093
675.683	880.155
675.812	866.361
675.940	868.186
676.068	867.144
676.196	853.505
676.324	861.041
676.452	868.031
676.580	851.649
676.708	843.948
676.837	854.515
676.965	847.392
677.093	841.278
677.221	832.835
677.349	824.216
677.477	825.876
677.605	826.381
677.733	831.526
677.862	818.031
677.990	826.629
678.118	815.619
678.246	804.856
678.374	810.175
678.502	812.732
678.630	795.577
678.758	797.103
678.887	796.299
679.015	802.237
679.143	786.000
679.271	796.454
679.399	782.155
679.527	780.371
679.655	780.742
679.783	784.639
679.912	764.598
680.040	775.804
680.168	765.402
680.296	765.505
680.424	765.392
680.552	765.474
680.680	757.598
680.808	755.423
680.937	752.577
681.065	745.948
681.193	743.423
681.321	747.196
681.449	740.237
681.577	736.041
681.705	738.918
681.833	739.175
681.962	733.979
682.090	736.711
682.218	736.567
682.346	727.608
682.474	722.928
682.602	731.247
682.730	731.505
682.858	722.144
682.987	728.856
683.115	712.072
683.243	717.299
683.371	716.959
683.499	702.072
683.627	707.546
683.755	702.639
683.883	702.505
684.012	702.495
684.140	707.113
684.268	699.546
684.396	694.928
684.524	701.732
684.652	698.351
684.780	707.825
684.908	696.031
685.037	693.309
685.165	697.258
685.293	691.371
685.421	688.423
685.549	688.278
685.677	687.134
685.805	679.711
685.933	679.186
686.062	671.000
686.190	685.433
686.318	677.887
686.446	681.660
686.574	675.351
686.702	676.289
686.830	670.814
686.958	669.753
687.087	667.546
687.215	664.887
687.343	661.103
687.471	662.639
687.599	654.351
687.727	662.825
687.855	656.701
687.983	646.845
688.112	646.010
688.240	646.443
688.368	646.237
688.496	645.763
688.624	638.825
688.752	648.495
688.880	642.454
689.008	639.567
689.137	627.062
689.265	635.711
689.393	626.454
689.521	630.814
689.649	630.876
689.777	626.526
689.905	631.330
690.033	622.423
690.162	624.000
690.290	616.660
690.418	614.567
690.546	614.289
690.674	620.309
690.802	609.784
690.930	610.351
691.058	603.763
691.187	603.979
691.315	608.258
691.443	604.948
691.571	598.691
691.699	591.175
691.827	589.247
691.955	588.474
692.083	588.144
692.212	588.268
692.340	585.165
692.468	584.753
692.596	579.052
692.724	580.392
692.852	579.433
692.980	574.124
693.108	569.897
693.237	568.557
693.365	574.928
693.493	570.000
693.621	564.990
693.749	566.670
693.877	563.959
694.005	558.505
694.133	560.402
694.262	558.732
694.390	552.897
694.518	550.876
694.646	549.423
694.774	554.196
694.902	539.608
695.030	552.474
695.158	544.722
695.287	539.794
695.415	538.742
695.543	534.072
695.671	534.021
695.799	532.175
695.927	526.794
696.055	527.546
696.183	531.990
696.312	531.433
696.440	525.711
696.568	525.093
696.696	520.691
696.824	516.722
696.952	516.443
697.080	512.289
697.208	512.577
697.337	511.196
697.465	506.464
697.593	509.165
697.721	500.227
697.849	501.505
697.977	503.959
698.105	501.268
698.233	499.814
698.362	493.278
698.490	497.309
698.618	492.433
698.746	492.206
698.874	484.598
699.002	489.670
699.130	482.794
699.258	486.330
699.387	481.443
699.515	476.196
699.643	477.742
699.771	478.608
699.899	476.278
700.027	478.649
700.155	475.732
700.283	474.443
700.412	459.742
700.540	467.361
700.668	463.196
700.796	463.258
700.924	458.278
701.052	458.299
701.180	453.670
701.308	454.351
701.437	452.969
701.565	452.402
701.693	454.423
701.821	445.289
701.949	442.876
702.077	445.577
702.205	446.649
702.333	446.412
702.462	446.227
702.590	434.186
702.718	434.175
702.846	430.175
702.974	430.928
703.102	429.134
703.230	428.206
703.358	419.825
703.487	421.206
703.615	424.845
703.743	412.371
703.871	412.732
703.999	410.062
704.127	417.258
704.255	409.701
704.383	410.103
704.512	408.144
704.640	404.186
704.768	404.351
704.896	404.660
705.024	397.711
705.152	398.588
705.280	399.536
705.408	398.876
705.537	393.134
705.665	393.082
705.793	390.835
705.921	384.959
706.049	388.227
706.177	384.423
706.305	390.598
706.433	388.464
706.562	379.526
706.690	380.474
706.818	380.309
706.946	372.361
707.074	371.536
707.202	370.866
707.330	371.351
707.458	368.897
707.587	364.722
707.715	365.567
707.843	366.814
707.971	365.598
708.099	364.320
708.227	360.938
708.355	360.526
708.483	360.701
708.612	357.784
708.740	358.845
708.868	359.742
708.996	351.608
709.124	359.794
709.252	355.010
709.380	350.165
709.508	348.351
709.637	351.732
709.765	347.546
709.893	348.093
710.021	342.330
710.149	346.598
710.277	342.639
710.405	337.773
710.533	339.392
710.662	337.763
710.790	339.309
710.918	336.237
711.046	332.454
711.174	338.433
711.302	332.216
711.430	331.649
711.558	335.351
711.687	332.351
711.815	327.320
711.943	332.701
712.071	331.340
712.199	329.082
712.327	326.010
712.455	323.959
712.583	327.474
712.712	326.361
712.840	324.113
712.968	318.938
713.096	322.474
713.224	321.567
713.352	321.526
713.480	318.495
713.608	316.557
713.737	315.278
713.865	316.856
713.993	313.515
714.121	312.660
714.249	315.351
714.377	313.062
714.505	310.062
714.633	305.990
714.762	307.196
714.890	311.412
715.018	308.351
715.146	310.268
715.274	304.464
715.402	300.433
715.530	303.000
715.658	302.619
715.787	307.474
715.915	300.186
716.043	303.753
716.171	300.711
716.299	301.928
716.427	299.289
716.555	297.969
716.683	294.948
716.812	299.165
716.940	294.010
717.068	294.619
717.196	288.959
717.324	290.649
717.452	289.361
717.580	288.515
717.708	285.918
717.837	288.052
717.965	288.423
718.093	287.433
718.221	283.928
718.349	286.134
718.477	285.887
718.605	280.845
718.733	280.856
718.862	283.165
718.990	280.515
719.118	278.052
719.246	274.247
719.374	278.856
719.502	276.711
719.630	273.155
719.758	272.454
719.887	273.753
720.015	275.959
720.143	270.268
720.271	270.010
720.399	264.763
720.527	267.773
720.655	268.454
720.783	267.784
720.912	264.794
721.040	267.495
721.168	263.052
721.296	258.577
721.424	260.072
721.552	259.526
721.680	255.938
721.808	258.216
721.937	257.536
722.065	257.505
722.193	253.732
722.321	256.041
722.449	249.629
722.577	256.897
722.705	247.753
722.833	251.546
722.962	247.856
723.090	245.856
723.218	248.464
723.346	250.186
723.474	249.268
723.602	239.031
723.730	240.701
723.858	243.474
723.987	237.206
724.115	235.907
724.243	237.134
724.371	239.000
724.499	237.412
724.627	241.381
724.755	236.371
724.883	236.928
725.012	237.144
725.140	234.361
725.268	238.845
725.396	234.454
725.524	231.990
725.652	231.227
725.780	228.485
725.908	227.938
726.037	225.144
726.165	228.340
726.293	221.773
726.421	227.969
726.549	227.268
726.677	223.309
726.805	221.918
726.933	220.979
727.062	221.443
727.190	217.763
727.318	221.320
727.446	220.773
727.574	222.134
727.702	222.186
727.830	218.464
727.958	216.144
728.087	216.979
728.215	207.763
728.343	218.763
728.471	218.763
728.599	213.887
728.727	209.515
728.855	215.670
728.983	212.247
729.112	209.526
729.240	204.010
729.368	204.959
729.496	208.794
729.624	209.072
729.752	207.010
729.880	205.474
730.008	210.289
730.137	207.464
730.265	206.340
730.393	201.928
730.521	200.515
730.649	202.804
730.777	201.196
730.905	200.186
731.033	203.309
731.162	203.443
731.290	198.485
731.418	199.649
731.546	198.433
731.674	200.928
731.802	197.876
731.930	196.784
732.058	199.289
732.187	194.835
732.315	199.186
732.443	199.835
732.571	192.103
732.699	197.052
732.827	193.680
732.955	192.773
733.083	191.732
733.212	191.897
733.340	191.216
733.468	192.309
733.596	191.990
733.724	190.175
733.852	189.124
733.980	187.598
734.108	189.629
734.237	186.598
734.365	186.340
734.493	186.979
734.621	190.237
734.749	188.392
734.877	187.711
735.005	184.557
735.133	187.031
735.262	186.649
735.390	184.454
735.518	181.876
735.646	180.866
735.774	184.433
735.902	181.763
736.030	181.041
736.158	182.392
736.287	182.041
736.415	179.629
736.543	178.773
736.671	179.629
736.799	180.598
736.927	179.557
737.055	181.938
737.183	178.021
737.312	178.072
737.440	178.608
737.568	178.093
737.696	179.361
737.824	177.423
737.952	177.814
738.080	177.918
738.208	175.763
738.337	173.876
738.465	175.536
738.593	174.361
738.721	172.021
738.849	174.206
738.977	172.619
739.105	174.639
739.233	170.000
739.362	167.753
739.490	170.711
739.618	170.804
739.746	173.206
739.874	169.814
740.002	170.773
740.130	166.722
740.258	170.196
740.387	170.948
740.515	169.134
740.643	170.773
740.771	166.557
740.899	167.227
741.027	165.485
741.155	166.433
741.283	165.196
741.412	164.835
741.540	164.423
741.668	165.753
741.796	165.732
741.924	160.742
742.052	161.351
742.180	162.918
742.308	162.722
742.437	161.010
742.565	163.031
742.693	163.278
742.821	163.825
742.949	161.670
743.077	160.876
743.205	163.629
743.333	160.072
743.462	159.784
743.590	156.835
743.718	160.990
743.846	159.052
743.974	159.495
744.102	158.990
744.230	161.959
744.358	159.619
744.487	161.536
744.615	155.938
744.743	156.732
744.871	157.072
744.999	154.268
745.127	156.010
745.255	155.928
745.383	155.330
745.512	156.536
745.640	155.887
745.768	154.639
745.896	153.144
746.024	154.351
746.152	155.423
746.280	154.186
746.408	154.567
746.537	154.619
746.665	156.443
746.793	151.103
746.921	154.216
747.049	152.351
747.177	154.206
747.305	151.113
747.433	153.186
747.562	151.691
747.690	152.072
747.818	152.825
747.946	152.186
748.074	151.990
748.202	149.680
748.330	149.814
748.458	151.711
748.587	149.619
748.715	148.041
748.843	149.515
748.971	148.144
749.099	150.258
749.227	148.670
749.355	147.289
749.483	147.608
749.612	146.845
749.740	147.495
749.868	146.753
749.996	146.670
750.124	147.299
750.252	146.526
750.380	146.660
750.508	148.773
750.637	145.165
750.765	145.856
750.893	146.330
751.021	143.814
751.149	143.773
751.277	145.031
751.405	144.237
751.533	146.691
751.662	149.495
751.790	145.155
751.918	146.474
752.046	143.454
752.174	141.639
752.302	143.907
752.430	142.124
752.558	141.557
752.687	141.835
752.815	142.948
752.943	142.557
753.071	141.196
753.199	140.340
753.327	141.639
753.455	141.309
753.583	139.402
753.712	140.010
753.840	139.567
753.968	141.835
754.096	137.464
754.224	140.320
754.352	138.433
754.480	139.907
754.608	139.247
754.737	137.072
754.865	138.567
754.993	138.649
755.121	138.423
755.249	135.990
755.377	135.227
755.505	136.216
755.633	137.124
755.762	135.361
755.890	136.454
756.018	136.103
756.146	134.876
756.274	134.680
756.402	135.907
756.530	137.206
756.658	134.835
756.787	132.845
756.915	131.959
757.043	133.794
757.171	134.907
757.299	130.825
757.427	133.701
757.555	131.443
757.683	132.649
757.812	133.464
757.940	133.113
758.068	130.660
758.196	130.505
758.324	132.526
758.452	132.206
758.580	132.186
758.708	132.897
758.837	130.536
758.965	129.959
759.093	129.268
759.221	133.082
759.349	131.062
759.477	130.814
759.605	128.247
759.733	131.722
759.862	128.392
759.990	129.608
760.118	129.093
760.246	128.505
760.374	130.464
760.502	127.897
760.630	128.701
760.758	129.320
760.887	126.454
761.015	128.526
761.143	125.990
761.271	128.093
761.399	126.969
761.527	129.804
761.655	124.856
761.783	126.794
761.912	126.124
762.040	126.196
762.168	126.763
762.296	123.515
762.424	126.887
762.552	123.887
762.680	123.371
762.808	124.423
762.937	123.546
763.065	124.402
763.193	125.289
763.321	126.258
763.449	123.536
763.577	122.340
763.705	124.598
763.833	126.557
763.962	122.701
764.090	123.278
764.218	122.402
764.346	123.722
764.474	123.082
764.602	123.928
764.730	122.680
764.858	122.186
764.987	123.629
765.115	122.175
765.243	122.918
765.371	122.577
765.499	120.144
765.627	121.969
765.755	120.732
765.883	120.423
766.012	120.990
766.140	118.433
766.268	120.546
766.396	121.515
766.524	119.505
766.652	118.959
766.780	117.433
766.908	120.474
767.037	120.093
767.165	119.825
767.293	121.361
767.421	120.464
767.549	117.897
767.677	118.722
767.805	120.041
767.933	118.938
768.062	119.113
768.190	117.773
768.318	118.206
768.446	117.876
768.574	119.175
768.702	118.794
768.830	118.918
768.958	116.464
769.087	119.660
769.215	118.866
769.343	118.031
769.471	117.876
769.599	118.845
769.727	120.072
769.855	118.474
769.983	114.340
770.112	116.845
770.240	117.113
770.368	117.072
770.496	117.526
770.624	117.691
770.752	118.320
770.880	116.010
771.008	116.670
771.137	117.010
771.265	116.649
771.393	115.134
771.521	116.052
771.649	116.093
771.777	116.670
771.905	117.474
772.033	117.041
772.162	116.000
772.290	114.969
772.418	117.134
772.546	114.021
772.674	115.577
772.802	114.206
772.930	113.423
773.058	113.443
773.187	114.072
773.315	116.948
773.443	114.918
773.571	115.041
773.699	112.299
773.827	112.979
773.955	112.722
774.083	114.237
774.212	114.010
774.340	114.474
774.468	111.608
774.596	113.124
774.724	112.536
774.852	111.887
774.980	112.258
775.108	112.887
775.237	112.155
775.365	112.825
775.493	112.124
775.621	111.670
775.749	112.835
775.877	113.526
776.005	113.186
776.133	111.464
776.262	112.000
776.390	112.629
776.518	112.134
776.646	113.742
776.774	111.680
776.902	111.557
777.030	112.113
777.158	112.505
777.287	111.938
777.415	111.485
777.543	111.010
777.671	112.340
777.799	110.814
777.927	114.278
778.055	113.093
778.183	111.495
778.312	111.175
778.440	111.402
778.568	111.928
778.696	111.856
778.824	112.464
778.952	110.289
779.080	109.062
779.208	110.010
779.337	110.423
779.465	110.907
779.593	111.124
779.721	113.072
779.849	110.299
779.977	111.124
780.105	110.969
780.233	110.598
780.362	110.227
780.490	109.216
780.618	109.320
780.746	109.866
780.874	108.330
781.002	110.866
781.130	109.454
781.258	109.402
781.387	109.691
781.515	110.299
781.643	109.443
781.771	108.722
781.899	108.557
782.027	108.763
782.155	110.175
782.283	107.309
782.412	108.763
782.540	109.237
782.668	110.196
782.796	108.505
782.924	109.206
783.052	108.072
783.180	108.402
783.308	108.639
783.437	108.340
783.565	108.371
783.693	109.897
783.821	109.361
783.949	108.485
784.077	107.711
784.205	108.268
784.333	109.691
784.462	109.165
784.590	110.155
784.718	108.000
784.846	107.546
784.974	107.567
785.102	107.144
785.230	107.959
785.358	107.742
785.487	105.948
785.615	105.897
785.743	107.526
785.871	106.856
785.999	108.515
786.127	107.144
786.255	108.330
786.383	107.639
786.512	107.175
786.640	107.876
786.768	107.371
786.896	107.031
787.024	107.608
787.152	105.196
787.280	107.835
787.408	107.062
787.537	106.546
787.665	106.567
787.793	106.175
787.921	107.990
788.049	106.959
788.177	107.196
788.305	106.186
788.433	106.814
788.562	105.784
788.690	106.825
788.818	105.526
788.946	104.866
789.074	105.206
789.202	106.443
789.330	105.134
789.458	106.526
789.587	105.722
789.715	105.660
789.843	105.526
789.971	107.289
790.099	106.784
790.227	104.814
790.355	104.155
790.483	105.711
790.612	105.340
790.740	106.320
790.868	106.247
790.996	105.010
791.124	106.959
791.252	105.928
791.380	105.268
791.508	104.021
791.637	105.619
791.765	105.072
791.893	104.577
792.021	105.928
792.149	105.454
792.277	104.887
792.405	105.443
792.533	105.082
792.662	104.443
792.790	106.258
792.918	106.856
793.046	104.856
793.174	105.515
793.302	105.433
793.430	106.021
793.558	105.392
793.687	105.619
793.815	103.959
793.943	102.948
794.071	103.258
794.199	103.010
794.327	103.515
794.455	104.876
794.583	103.629
794.712	105.691
794.840	102.897
794.968	102.546
795.096	103.588
795.224	103.072
795.352	104.485
795.480	103.722
795.608	105.340
795.737	105.278
795.865	104.247
795.993	103.340
796.121	103.742
796.249	104.206
796.377	103.443
796.505	104.268
796.633	104.938
796.762	103.948
796.890	105.464
797.018	103.856
797.146	102.289
797.274	103.165
797.402	102.072
797.530	103.258
797.658	103.247
797.787	104.412
797.915	104.443
798.043	103.392
798.171	104.103
798.299	103.289
798.427	102.299
798.555	103.670
798.683	102.773
798.812	103.557
798.940	103.505
799.068	102.948
799.196	103.577
799.324	103.546
799.452	103.711
799.580	104.072
799.708	103.938
799.837	103.948
799.965	103.577
800.093	102.691
800.221	104.258
800.349	104.278
800.477	102.216
800.605	102.289
800.733	102.959
800.862	103.433
800.990	102.907
801.118	103.351
801.246	101.392
801.374	102.701
801.502	103.000
801.630	102.402
801.758	103.897
801.887	101.866
802.015	101.928
802.143	102.361
802.271	102.155
802.399	103.289
802.527	102.021
802.655	101.742
802.783	102.062
802.912	101.608
803.040	102.598
803.168	101.742
803.296	102.351
803.424	101.371
803.552	102.763
803.680	101.722
803.808	101.299
803.937	100.959
804.065	102.454
804.193	101.680
804.321	101.227
804.449	101.278
804.577	100.649
804.705	101.371
804.833	100.825
804.962	101.876
805.090	100.392
805.218	101.691
805.346	101.577
805.474	101.505
805.602	102.969
805.730	100.794
805.858	100.330
805.987	99.918
806.115	102.371
806.243	102.227
806.371	102.041
806.499	102.557
806.627	101.268
806.755	100.856
806.883	101.897
807.012	101.567
807.140	101.454
807.268	100.660
807.396	100.660
807.524	101.227
807.652	100.835
807.780	101.887
807.908	100.186
808.037	100.495
808.165	101.412
808.293	100.763
808.421	100.175
808.549	102.526
808.677	101.000
808.805	101.361
808.933	100.443
809.062	100.041
809.190	100.237
809.318	101.660
809.446	101.619
809.574	100.598
809.702	101.495
809.830	100.206
809.958	98.763
810.087	100.629
810.215	102.021
810.343	102.742
810.471	102.588
810.599	101.464
810.727	102.175
810.855	100.113
810.983	102.670
811.112	102.381
811.240	99.660
811.368	100.330
811.496	101.639
811.624	101.515
811.752	100.392
811.880	101.392
812.008	101.072
812.137	99.969
812.265	99.577
812.393	100.340
812.521	99.515
812.649	100.887
812.777	101.598
812.905	100.330
813.033	99.825
813.162	99.062
813.290	101.361
813.418	99.979
813.546	100.536
813.674	99.722
813.802	99.649
813.930	99.258
814.058	101.041
814.187	100.711
814.315	100.464
814.443	100.784
814.571	99.299
814.699	100.588
814.827	100.918
814.955	101.093
815.083	100.722
815.212	100.670
815.340	99.907
815.468	99.495
815.596	100.258
815.724	100.144
815.852	99.381
815.980	100.196
816.108	100.784
816.237	99.546
816.365	100.577
816.493	99.784
816.621	99.371
816.749	101.371
816.877	99.464
817.005	101.423
817.133	101.670
817.262	100.278
817.390	101.278
817.518	99.948
817.646	100.216
817.774	99.577
817.902	100.124
818.030	100.216
818.158	101.619
818.287	100.330
818.415	100.103
818.543	99.907
818.671	100.247
818.799	101.134
818.927	100.773
819.055	100.701
819.183	101.433
819.312	100.711
819.440	101.062
819.568	100.763
819.696	99.588
819.824	101.186
819.952	98.722
820.080	99.990
820.208	99.619
820.337	101.361
820.465	100.155
820.593	99.773
820.721	100.320
820.849	99.340
820.977	100.227
821.105	100.423
821.233	100.361
821.362	100.000
821.490	100.546
821.618	99.577
821.746	99.000
821.874	98.010
822.002	98.969
822.130	99.948
822.258	98.979
822.387	98.010
822.515	100.093
822.643	99.000
822.771	98.412
822.899	100.124
823.027	100.237
823.155	98.608
823.283	98.505
823.412	100.258
823.540	99.309
823.668	100.041
823.796	98.546
823.924	98.948
824.052	99.103
824.180	98.186
824.308	99.711
824.437	98.454
824.565	99.536
824.693	101.227
824.821	99.371
824.949	99.639
825.077	98.845
825.205	97.639
825.333	97.196
825.462	99.804
825.590	99.340
825.718	98.196
825.846	99.227
825.974	99.742
826.102	100.237
826.230	98.392
826.358	98.639
826.487	99.196
826.615	97.670
826.743	99.000
826.871	100.124
826.999	99.309
827.127	99.196
827.255	98.206
827.383	98.835
827.512	98.227
827.640	99.691
827.768	99.732
827.896	98.897
828.024	98.588
828.152	98.907
828.280	99.845
828.408	100.237
828.537	99.041
828.665	99.206
828.793	99.835
828.921	99.052
829.049	98.897
829.177	98.907
829.305	98.216
829.433	98.247
829.562	98.392
829.690	99.485
829.818	99.247
829.946	98.526
830.074	97.608
830.202	99.082
830.330	98.835
830.458	99.588
830.587	98.897
830.715	99.258
830.843	99.763
830.971	98.423
831.099	97.990
831.227	98.155
831.355	98.433
831.483	99.289
831.612	99.412
831.740	98.825
831.868	98.660
831.996	98.474
832.124	98.990
832.252	99.124
832.380	98.536
832.508	98.474
832.637	98.464
832.765	98.918
832.893	97.845
833.021	98.371
833.149	98.464
833.277	99.330
833.405	99.052
833.533	96.979
833.662	100.165
833.790	98.938
833.918	99.351
834.046	99.268
834.174	99.155
834.302	99.433
834.430	98.134
834.558	99.052
834.687	99.021
834.815	98.485
834.943	98.505
835.071	98.887
835.199	98.536
835.327	97.670
835.455	96.773
835.583	99.103
835.712	97.505
835.840	97.536
835.968	98.041
836.096	98.876
836.224	99.021
836.352	99.402
836.480	100.175
836.608	98.649
836.737	99.361
836.865	97.763
836.993	98.227
837.121	99.165
837.249	98.639
837.377	98.722
837.505	97.567
837.633	98.124
837.762	98.031
837.890	98.845
838.018	97.309
838.146	97.598
838.274	99.124
838.402	99.330
838.530	97.340
838.658	97.784
838.787	97.825
838.915	98.330
839.043	99.567
839.171	99.412
839.299	99.031
839.427	98.175
839.555	100.124
839.683	100.711
839.812	99.082
839.940	98.856
840.068	97.845
840.196	97.773
840.324	98.526
840.452	98.216
840.580	97.247
840.708	99.577
840.837	98.320
840.965	98.763
841.093	99.351
841.221	98.711
841.349	98.474
841.477	98.814
841.605	97.845
841.733	96.866
841.862	99.753
841.990	98.474
842.118	98.526
842.246	98.093
842.374	98.536
842.502	98.959
842.630	97.928
842.758	98.928
842.887	98.124
843.015	98.845
843.143	99.186
843.271	97.361
843.399	99.041
843.527	98.351
843.655	98.124
843.783	97.928
843.912	97.629
844.040	98.062
844.168	99.928
844.296	99.887
844.424	98.866
844.552	98.443
844.680	97.887
844.808	99.216
844.937	97.629
845.065	98.515
845.193	99.464
845.321	97.072
845.449	98.948
845.577	98.082
845.705	97.835
845.833	98.629
845.962	99.361
846.090	98.845
846.218	98.330
846.346	99.392
846.474	97.639
846.602	97.309
846.730	98.247
846.858	98.165
846.987	96.701
847.115	98.814
847.243	98.464
847.371	99.113
847.499	96.938
847.627	97.619
847.755	97.093
847.883	97.711
848.012	98.495
848.140	99.247
848.268	99.093
848.396	98.031
848.524	98.598
848.652	99.546
848.780	98.227
848.908	99.392
849.037	98.423
849.165	98.340
849.293	97.031
849.421	97.732
849.549	98.093
849.677	98.361
849.805	99.711
849.933	98.454
850.062	99.041
850.190	98.309
850.318	98.742
850.446	99.309
850.574	98.031
850.702	97.856
850.830	98.505
850.958	98.598
851.087	99.155
851.215	98.052
851.343	98.227
851.471	97.773
851.599	99.216
851.727	97.897
851.855	98.103
851.983	98.175
852.112	98.639
852.240	98.237
852.368	97.825
852.496	97.907
852.624	98.299
852.752	96.794
852.880	97.680
853.008	97.278
853.137	98.835
853.265	99.186
853.393	98.577
853.521	97.619
853.649	98.897
853.777	98.670
853.905	99.062
854.033	96.814
854.162	98.732
854.290	98.155
854.418	98.258
854.546	96.979
854.674	97.629
854.802	97.856
854.930	97.196
855.058	97.897
855.187	99.330
855.315	98.237
855.443	97.227
855.571	98.247
855.699	97.979
855.827	96.814
855.955	97.227
856.083	98.381
856.212	99.567
856.340	99.289
856.468	96.856
856.596	97.753
856.724	98.505
856.852	98.918
856.980	97.320
857.108	97.794
857.237	99.113
857.365	97.876
857.493	99.072
857.621	98.062
857.749	98.041
857.877	96.598
858.005	99.268
858.133	97.309
858.262	98.474
858.390	99.412
858.518	96.588
858.646	97.979
858.774	99.526
858.902	97.454
859.030	98.175
859.158	98.216
859.287	98.196
859.415	97.897
859.543	96.701
859.671	97.402
859.799	99.000
859.927	98.526
860.055	98.938
860.183	97.577
860.312	98.371
860.440	97.526
860.568	98.845
860.696	99.536
860.824	98.454
860.952	97.021
861.080	98.443
861.208	97.969
861.337	97.216
861.465	96.629
861.593	97.794
861.721	99.495
861.849	97.351
861.977	97.856
862.105	98.557
862.233	98.237
862.362	98.495
862.490	98.629
862.618	99.691
862.746	99.474
862.874	99.608
863.002	98.237
863.130	97.773
863.258	98.546
863.387	97.876
863.515	98.485
863.643	98.124
863.771	97.938
863.899	98.021
864.027	99.237
864.155	98.186
864.283	96.598
864.412	99.062
864.540	99.113
864.668	96.598
864.796	98.732
864.924	98.155
865.052	98.093
865.180	98.753
865.308	98.196
865.437	99.052
865.565	97.629
865.693	97.876
865.821	97.000
865.949	97.979
866.077	99.753
866.205	98.010
866.333	97.990
866.462	97.495
866.590	99.485
866.718	98.515
866.846	98.412
866.974	99.165
867.102	98.969
867.230	98.124
867.358	99.784
867.487	98.979
867.615	98.402
867.743	99.216
867.871	99.598
867.999	99.309
868.127	97.567
868.255	98.856
868.383	99.433
868.512	98.680
868.640	97.598
868.768	99.010
868.896	97.598
869.024	98.680
869.152	97.649
869.280	99.186
869.408	99.577
869.537	97.907
869.665	97.918
869.793	98.216
869.921	98.330
870.049	98.464
870.177	98.361
870.305	99.567
870.433	99.186
870.562	98.165
870.690	98.907
870.818	98.619
870.946	100.216
871.074	98.134
871.202	97.309
871.330	99.371
871.458	98.866
871.587	99.041
871.715	97.722
871.843	98.536
871.971	98.433
872.099	97.835
872.227	98.567
872.355	98.474
872.483	99.247
872.612	99.979
872.740	97.804
872.868	98.485
872.996	98.093
873.124	98.289
873.252	98.897
873.380	99.093
873.508	98.340
873.637	99.216
873.765	97.928
873.893	98.237
874.021	97.959
874.149	99.103
874.277	98.742
874.405	99.227
874.533	99.742
874.662	99.320
874.790	98.124
874.918	99.093
875.046	97.505
875.174	98.567
875.302	97.856
875.430	97.969
875.558	97.216
875.687	97.691
875.815	99.278
875.943	98.763
876.071	99.165
876.199	99.969
876.327	97.784
876.455	99.196
876.583	99.381
876.712	99.351
876.840	97.856
876.968	98.557
877.096	98.979
877.224	98.938
877.352	97.835
877.480	98.320
877.608	99.536
877.737	98.856
877.865	97.289
877.993	97.825
878.121	99.000
878.249	99.536
878.377	98.474
878.505	98.186
878.633	100.124
878.762	99.021
878.890	98.433
879.018	98.186
879.146	99.010
879.274	98.485
879.402	99.165
879.530	97.876
879.658	99.103
879.787	97.464
879.915	97.887
880.043	100.464
880.171	98.113
880.299	97.464
880.427	98.402
880.555	100.124
880.683	100.289
880.812	98.918
880.940	97.536
881.068	98.392
881.196	99.536
881.324	99.598
881.452	98.990
881.580	99.237
881.708	98.278
881.837	99.155
881.965	98.309
882.093	98.485
882.221	97.928
882.349	97.124
882.477	98.763
882.605	99.320
882.733	98.268
882.862	99.856
882.990	98.392
883.118	99.969
883.246	98.402
883.374	98.711
883.502	99.010
883.630	99.814
883.758	99.381
883.887	97.742
884.015	98.918
884.143	98.959
884.271	99.722
884.399	98.155
884.527	99.515
884.655	99.216
884.783	100.660
884.912	99.392
885.040	99.619
885.168	98.907
885.296	98.979
885.424	98.897
885.552	99.371
885.680	98.722
885.808	99.021
885.937	99.763
886.065	97.856
886.193	98.959
886.321	99.732
886.449	99.856
886.577	98.670
886.705	98.598
886.833	98.412
886.962	99.598
887.090	98.722
887.218	98.402
887.346	98.546
887.474	99.629
887.602	99.227
887.730	97.639
887.858	97.918
887.987	98.619
888.115	98.216
888.243	99.381
888.371	100.464
888.499	100.330
888.627	99.206
888.755	98.392
888.883	99.186
889.012	98.433
889.140	97.412
889.268	98.608
889.396	98.577
889.524	98.351
889.652	98.546
889.780	98.155
889.908	98.402
890.037	99.072
890.165	98.010
890.293	99.763
890.421	100.371
890.549	99.763
890.677	98.124
890.805	99.175
890.933	99.165
891.062	99.216
891.190	99.330
891.318	99.907
891.446	98.361
891.574	99.423
891.702	98.856
891.830	99.186
891.958	99.546
892.087	100.361
892.215	99.289
892.343	99.835
892.471	97.938
892.599	99.134
892.727	100.732
892.855	99.722
892.983	99.505
893.112	99.412
893.240	99.485
893.368	98.876
893.496	100.278
893.624	98.701
893.752	100.381
893.880	98.753
894.008	99.897
894.137	100.649
894.265	100.155
894.393	99.371
894.521	98.835
894.649	98.660
894.777	99.010
894.905	98.784
895.033	101.299
895.162	100.515
895.290	99.918
895.418	100.887
895.546	100.990
895.674	99.072
895.802	99.124
895.930	98.289
896.058	99.361
896.187	99.691
896.315	101.299
896.443	98.907
896.571	100.351
896.699	99.649
896.827	99.845
896.955	99.392
897.083	99.567
897.212	101.588
897.340	99.082
897.468	98.485
897.596	99.959
897.724	100.041
897.852	100.165
897.980	100.402
898.108	99.278
898.237	99.165
898.365	99.866
898.493	101.557
898.621	99.639
898.749	98.041
898.877	98.649
899.005	99.309
899.133	99.691
899.262	99.804
899.390	99.052
899.518	98.876
899.646	99.897
899.774	100.175
899.902	99.680
900.030	100.268
900.158	99.804
900.287	100.794
900.415	99.309
900.543	99.670
900.671	101.814
900.799	99.103
900.927	99.649
901.055	99.082
901.183	99.990
901.312	99.670
901.440	100.474
901.568	99.526
901.696	99.722
901.824	99.907
901.952	100.557
902.080	98.691
902.208	98.351
902.337	100.670
902.465	99.814
902.593	100.711
902.721	100.784
902.849	101.258
902.977	99.608
903.105	99.309
903.233	98.773
903.362	100.392
903.490	98.660
903.618	100.629
903.746	100.041
903.874	100.309
904.002	101.021
904.130	99.979
904.258	99.866
904.387	99.289
904.515	99.722
904.643	101.412
904.771	100.186
904.899	99.701
905.027	99.598
905.155	98.691
905.283	99.763
905.412	100.062
905.540	98.918
905.668	99.144
905.796	99.175
905.924	100.320
906.052	101.351
906.180	101.206
906.308	99.433
906.437	99.598
906.565	100.567
906.693	98.845
906.821	98.309
906.949	99.505
907.077	99.474
907.205	100.959
907.333	98.701
907.462	100.959
907.590	101.237
907.718	99.680
907.846	100.351
907.974	101.691
908.102	101.196
908.230	98.856
908.358	99.258
908.487	98.814
908.615	99.072
908.743	100.423
908.871	101.660
908.999	99.000
909.127	99.938
909.255	99.351
909.383	98.990
909.512	100.433
909.640	100.794
909.768	100.505
909.896	101.629
910.024	100.103
910.152	100.619
910.280	100.041
910.408	100.052
910.537	102.299
910.665	99.402
910.793	99.351
910.921	100.299
911.049	100.113
911.177	99.639
911.305	100.351
911.433	100.392
911.562	101.454
911.690	100.433
911.818	100.144
911.946	100.526
912.074	101.629
912.202	99.299
912.330	99.577
912.458	100.485
912.587	99.021
912.715	100.206
912.843	101.351
912.971	101.773
913.099	100.825
913.227	101.443
913.355	101.412
913.483	100.742
913.612	101.485
913.740	100.588
913.868	101.588
