dark_at_750.00nm_cut_at_1060.50Y_01.dat
19.06.2023
11:25:49
cut middle at Y: 1060.50
top cursor: 1109 down cursor: 1012 mean of: 97 lines , 2560 datapoints
wavelength(nm)	intensity[arb. units]
585.996	103.567
586.124	103.052
586.252	102.897
586.380	103.216
586.508	103.866
586.637	104.340
586.765	103.804
586.893	103.887
587.021	103.505
587.149	103.381
587.277	103.701
587.405	103.784
587.533	103.526
587.662	102.856
587.790	102.753
587.918	102.485
588.046	102.546
588.174	103.309
588.302	103.959
588.430	103.814
588.558	103.639
588.687	103.588
588.815	104.010
588.943	104.351
589.071	104.320
589.199	103.495
589.327	103.093
589.455	102.969
589.583	104.041
589.712	103.134
589.840	104.052
589.968	103.247
590.096	104.082
590.224	103.052
590.352	104.113
590.480	102.649
590.608	102.443
590.737	104.031
590.865	103.629
590.993	104.113
591.121	102.639
591.249	102.670
591.377	102.299
591.505	103.794
591.633	103.402
591.762	103.113
591.890	103.175
592.018	104.052
592.146	102.845
592.274	103.196
592.402	104.289
592.530	104.216
592.658	103.979
592.787	104.021
592.915	103.227
593.043	102.289
593.171	103.268
593.299	102.876
593.427	103.814
593.555	102.763
593.683	103.464
593.812	103.021
593.940	101.938
594.068	102.814
594.196	102.103
594.324	103.701
594.452	102.309
594.580	104.134
594.708	104.546
594.837	103.340
594.965	103.639
595.093	104.144
595.221	104.320
595.349	104.165
595.477	103.763
595.605	103.227
595.733	102.876
595.862	104.175
595.990	103.082
596.118	104.113
596.246	102.804
596.374	105.021
596.502	103.464
596.630	102.804
596.758	102.412
596.887	102.876
597.015	102.577
597.143	103.773
597.271	102.041
597.399	101.711
597.527	102.237
597.655	101.392
597.783	102.866
597.912	102.557
598.040	103.289
598.168	103.206
598.296	102.928
598.424	103.216
598.552	102.598
598.680	101.742
598.808	101.959
598.937	102.134
599.065	104.443
599.193	103.784
599.321	102.237
599.449	101.299
599.577	103.515
599.705	104.526
599.833	102.619
599.962	102.485
600.090	102.278
600.218	101.608
600.346	102.443
600.474	102.351
600.602	102.753
600.730	102.619
600.858	103.732
600.987	103.876
601.115	103.753
601.243	103.660
601.371	102.237
601.499	103.113
601.627	101.990
601.755	102.753
601.883	102.485
602.012	102.588
602.140	101.320
602.268	102.608
602.396	101.876
602.524	103.175
602.652	103.392
602.780	102.804
602.908	101.598
603.037	101.928
603.165	101.474
603.293	103.072
603.421	102.856
603.549	101.619
603.677	102.237
603.805	102.052
603.933	101.969
604.062	102.814
604.190	103.134
604.318	103.351
604.446	103.381
604.574	103.299
604.702	101.990
604.830	103.567
604.958	102.320
605.087	102.052
605.215	102.216
605.343	103.206
605.471	102.825
605.599	102.557
605.727	102.979
605.855	103.144
605.983	103.113
606.112	102.186
606.240	103.701
606.368	103.526
606.496	103.258
606.624	101.897
606.752	102.928
606.880	102.216
607.008	102.866
607.137	103.485
607.265	101.619
607.393	102.918
607.521	102.701
607.649	102.598
607.777	102.608
607.905	102.082
608.033	103.082
608.162	102.742
608.290	101.392
608.418	102.031
608.546	101.309
608.674	101.619
608.802	103.196
608.930	102.598
609.058	103.031
609.187	102.691
609.315	102.639
609.443	101.701
609.571	102.309
609.699	102.000
609.827	102.412
609.955	102.412
610.083	102.134
610.212	102.680
610.340	102.021
610.468	101.247
610.596	103.010
610.724	103.464
610.852	102.361
610.980	103.021
611.108	101.969
611.237	102.031
611.365	102.433
611.493	103.433
611.621	102.474
611.749	101.557
611.877	102.093
612.005	102.186
612.133	102.443
612.262	101.753
612.390	102.381
612.518	103.052
612.646	103.959
612.774	101.979
612.902	104.268
613.030	102.072
613.158	102.021
613.287	101.598
613.415	102.979
613.543	103.845
613.671	102.608
613.799	101.804
613.927	103.258
614.055	102.784
614.183	101.866
614.312	103.371
614.440	103.639
614.568	101.515
614.696	101.567
614.824	101.340
614.952	101.680
615.080	101.835
615.208	101.814
615.337	101.763
615.465	102.000
615.593	101.113
615.721	101.639
615.849	102.969
615.977	102.227
616.105	102.577
616.233	103.876
616.362	100.794
616.490	102.866
616.618	101.825
616.746	101.691
616.874	101.577
617.002	100.763
617.130	102.134
617.258	101.072
617.387	102.381
617.515	102.763
617.643	101.155
617.771	102.021
617.899	102.526
618.027	101.402
618.155	100.814
618.283	101.608
618.412	101.515
618.540	102.134
618.668	101.969
618.796	103.309
618.924	104.588
619.052	101.763
619.180	102.216
619.308	102.948
619.437	102.588
619.565	101.598
619.693	101.454
619.821	100.711
619.949	100.990
620.077	101.897
620.205	102.876
620.333	101.608
620.462	101.567
620.590	101.515
620.718	100.082
620.846	102.526
620.974	100.268
621.102	101.887
621.230	102.093
621.358	101.474
621.487	100.969
621.615	101.598
621.743	101.278
621.871	102.134
621.999	102.629
622.127	100.124
622.255	101.309
622.383	100.113
622.512	100.412
622.640	101.773
622.768	101.722
622.896	101.722
623.024	100.505
623.152	101.392
623.280	102.113
623.408	102.515
623.537	100.742
623.665	102.588
623.793	101.443
623.921	103.175
624.049	101.258
624.177	102.021
624.305	101.753
624.433	101.278
624.562	101.959
624.690	102.959
624.818	100.897
624.946	101.959
625.074	101.680
625.202	102.835
625.330	101.072
625.458	101.907
625.587	101.979
625.715	101.990
625.843	101.175
625.971	102.134
626.099	102.402
626.227	100.753
626.355	101.753
626.483	101.660
626.612	100.515
626.740	101.340
626.868	101.649
626.996	101.536
627.124	102.216
627.252	101.041
627.380	101.979
627.508	101.505
627.637	102.979
627.765	102.794
627.893	102.897
628.021	101.588
628.149	102.784
628.277	100.701
628.405	101.495
628.533	103.691
628.662	102.041
628.790	101.588
628.918	101.392
629.046	101.608
629.174	99.990
629.302	101.660
629.430	100.237
629.558	102.206
629.687	102.485
629.815	102.443
629.943	102.010
630.071	101.825
630.199	102.010
630.327	102.103
630.455	100.959
630.583	102.000
630.712	101.856
630.840	102.082
630.968	102.216
631.096	101.546
631.224	100.155
631.352	99.619
631.480	101.041
631.608	100.371
631.737	100.794
631.865	100.412
631.993	101.237
632.121	102.124
632.249	101.835
632.377	101.639
632.505	101.701
632.633	102.093
632.762	100.742
632.890	99.804
633.018	101.454
633.146	103.227
633.274	102.608
633.402	102.423
633.530	100.773
633.658	101.722
633.787	100.948
633.915	102.639
634.043	101.010
634.171	101.082
634.299	101.000
634.427	100.371
634.555	101.928
634.683	100.546
634.812	101.412
634.940	100.588
635.068	100.866
635.196	99.299
635.324	101.515
635.452	100.948
635.580	102.031
635.708	101.536
635.837	101.485
635.965	101.072
636.093	101.000
636.221	102.928
636.349	100.443
636.477	101.258
636.605	101.103
636.733	100.320
636.862	99.557
636.990	99.856
637.118	100.794
637.246	100.856
637.374	100.144
637.502	101.186
637.630	101.268
637.758	101.495
637.887	100.619
638.015	100.124
638.143	100.691
638.271	101.536
638.399	101.165
638.527	100.577
638.655	101.505
638.783	100.402
638.912	100.165
639.040	99.557
639.168	100.722
639.296	100.052
639.424	101.175
639.552	100.845
639.680	101.103
639.808	100.175
639.937	99.433
640.065	100.113
640.193	101.876
640.321	100.278
640.449	100.186
640.577	100.928
640.705	101.433
640.833	100.433
640.962	100.649
641.090	100.515
641.218	100.258
641.346	99.485
641.474	101.454
641.602	101.784
641.730	99.330
641.858	101.278
641.987	101.062
642.115	100.361
642.243	101.103
642.371	101.196
642.499	99.711
642.627	100.041
642.755	100.825
642.883	100.784
643.012	102.340
643.140	101.000
643.268	102.464
643.396	100.495
643.524	100.371
643.652	101.155
643.780	100.485
643.908	100.381
644.037	100.330
644.165	100.763
644.293	100.330
644.421	100.144
644.549	99.763
644.677	101.093
644.805	101.588
644.933	99.732
645.062	99.588
645.190	101.474
645.318	100.567
645.446	100.608
645.574	100.711
645.702	101.227
645.830	100.588
645.958	99.691
646.087	101.175
646.215	101.454
646.343	100.010
646.471	99.351
646.599	100.041
646.727	101.175
646.855	100.845
646.983	101.557
647.112	101.443
647.240	101.196
647.368	100.227
647.496	100.742
647.624	100.309
647.752	101.330
647.880	100.443
648.008	100.433
648.137	101.031
648.265	101.753
648.393	99.969
648.521	100.515
648.649	100.196
648.777	99.536
648.905	100.412
649.033	99.660
649.162	100.979
649.290	101.928
649.418	99.990
649.546	100.165
649.674	101.113
649.802	100.093
649.930	100.216
650.058	100.866
650.187	99.722
650.315	100.278
650.443	101.505
650.571	99.907
650.699	100.000
650.827	101.196
650.955	99.856
651.083	100.567
651.212	101.546
651.340	100.835
651.468	99.361
651.596	100.340
651.724	101.227
651.852	100.680
651.980	100.134
652.108	99.794
652.237	100.753
652.365	101.289
652.493	99.577
652.621	100.897
652.749	100.227
652.877	100.113
653.005	101.113
653.133	101.753
653.262	100.763
653.390	100.557
653.518	100.155
653.646	100.814
653.774	99.918
653.902	99.619
654.030	99.474
654.158	100.206
654.287	101.093
654.415	101.010
654.543	100.031
654.671	99.959
654.799	99.969
654.927	99.979
655.055	99.876
655.183	99.474
655.312	100.103
655.440	100.691
655.568	100.629
655.696	100.340
655.824	100.186
655.952	99.546
656.080	100.103
656.208	100.000
656.337	102.546
656.465	100.649
656.593	100.629
656.721	101.289
656.849	101.144
656.977	101.268
657.105	98.825
657.233	99.289
657.362	101.010
657.490	100.784
657.618	101.175
657.746	99.753
657.874	100.000
658.002	100.567
658.130	98.773
658.258	99.784
658.387	101.134
658.515	99.103
658.643	99.691
658.771	99.856
658.899	100.742
659.027	100.454
659.155	99.515
659.283	98.907
659.412	99.938
659.540	100.629
659.668	99.629
659.796	99.845
659.924	100.041
660.052	100.134
660.180	99.670
660.308	100.588
660.437	100.330
660.565	99.619
660.693	100.639
660.821	101.340
660.949	100.031
661.077	100.660
661.205	99.072
661.333	100.670
661.462	102.268
661.590	100.412
661.718	99.196
661.846	99.155
661.974	100.474
662.102	100.825
662.230	99.969
662.358	100.474
662.487	100.670
662.615	100.794
662.743	100.258
662.871	99.825
662.999	99.320
663.127	100.361
663.255	99.299
663.383	100.701
663.512	98.124
663.640	98.866
663.768	99.505
663.896	100.237
664.024	99.577
664.152	99.402
664.280	98.897
664.408	101.196
664.537	101.103
664.665	99.443
664.793	100.742
664.921	101.247
665.049	99.969
665.177	101.031
665.305	100.887
665.433	99.691
665.562	100.124
665.690	100.309
665.818	100.206
665.946	99.381
666.074	98.062
666.202	99.649
666.330	100.392
666.458	100.979
666.587	100.443
666.715	99.144
666.843	100.608
666.971	99.567
667.099	100.660
667.227	99.278
667.355	99.567
667.483	99.649
667.612	99.784
667.740	99.505
667.868	98.928
667.996	100.546
668.124	101.082
668.252	98.608
668.380	100.856
668.508	100.804
668.637	101.082
668.765	100.577
668.893	101.454
669.021	100.124
669.149	99.649
669.277	99.835
669.405	101.052
669.533	99.093
669.662	99.670
669.790	100.000
669.918	99.093
670.046	99.835
670.174	100.753
670.302	100.856
670.430	100.660
670.558	101.680
670.687	100.546
670.815	98.907
670.943	100.711
671.071	100.691
671.199	98.113
671.327	99.175
671.455	99.794
671.583	100.093
671.712	100.010
671.840	100.660
671.968	99.732
672.096	99.845
672.224	100.588
672.352	99.670
672.480	100.402
672.608	99.371
672.737	99.309
672.865	99.021
672.993	100.330
673.121	100.485
673.249	99.866
673.377	98.619
673.505	100.454
673.633	99.361
673.762	99.072
673.890	100.732
674.018	98.979
674.146	100.031
674.274	99.495
674.402	100.763
674.530	99.495
674.658	99.567
674.787	100.072
674.915	99.041
675.043	99.392
675.171	100.155
675.299	99.072
675.427	100.608
675.555	100.268
675.683	99.773
675.812	99.206
675.940	99.649
676.068	102.340
676.196	99.505
676.324	100.567
676.452	100.495
676.580	100.330
676.708	100.515
676.837	97.990
676.965	99.278
677.093	99.722
677.221	101.124
677.349	100.577
677.477	100.969
677.605	99.165
677.733	99.722
677.862	100.474
677.990	100.907
678.118	98.299
678.246	99.495
678.374	99.309
678.502	99.722
678.630	99.031
678.758	99.856
678.887	100.351
679.015	101.093
679.143	99.062
679.271	99.206
679.399	99.649
679.527	99.990
679.655	99.196
679.783	100.134
679.912	98.701
680.040	99.732
680.168	99.103
680.296	99.505
680.424	99.268
680.552	99.351
680.680	98.742
680.808	99.567
680.937	99.155
681.065	99.814
681.193	99.196
681.321	99.742
681.449	99.670
681.577	100.113
681.705	98.866
681.833	98.351
681.962	99.938
682.090	100.000
682.218	99.536
682.346	97.763
682.474	98.278
682.602	98.619
682.730	100.052
682.858	98.887
682.987	99.804
683.115	100.072
683.243	100.351
683.371	99.938
683.499	98.876
683.627	99.072
683.755	99.010
683.883	99.546
684.012	98.351
684.140	99.134
684.268	98.433
684.396	97.763
684.524	99.897
684.652	98.959
684.780	99.608
684.908	99.680
685.037	99.021
685.165	99.526
685.293	100.845
685.421	99.289
685.549	99.000
685.677	99.041
685.805	99.866
685.933	99.969
686.062	100.660
686.190	99.485
686.318	98.938
686.446	99.660
686.574	100.175
686.702	100.588
686.830	99.062
686.958	98.155
687.087	99.206
687.215	98.567
687.343	99.206
687.471	99.495
687.599	98.918
687.727	98.918
687.855	99.186
687.983	99.711
688.112	99.340
688.240	98.299
688.368	98.835
688.496	99.041
688.624	99.701
688.752	98.948
688.880	98.979
689.008	98.433
689.137	100.474
689.265	98.990
689.393	100.113
689.521	99.247
689.649	99.361
689.777	98.876
689.905	98.753
690.033	99.660
690.162	99.753
690.290	100.794
690.418	98.948
690.546	99.216
690.674	99.526
690.802	99.588
690.930	99.536
691.058	99.216
691.187	98.866
691.315	99.175
691.443	98.876
691.571	99.216
691.699	98.814
691.827	99.196
691.955	98.278
692.083	99.588
692.212	98.763
692.340	99.010
692.468	99.948
692.596	97.959
692.724	100.330
692.852	99.175
692.980	97.918
693.108	99.979
693.237	98.918
693.365	99.732
693.493	100.546
693.621	98.103
693.749	99.155
693.877	98.247
694.005	96.876
694.133	98.588
694.262	99.433
694.390	99.010
694.518	99.763
694.646	98.361
694.774	98.536
694.902	98.588
695.030	98.680
695.158	99.268
695.287	98.876
695.415	98.918
695.543	100.227
695.671	100.124
695.799	98.856
695.927	98.619
696.055	98.732
696.183	99.351
696.312	98.918
696.440	98.320
696.568	99.557
696.696	99.691
696.824	99.000
696.952	99.175
697.080	100.021
697.208	99.485
697.337	98.093
697.465	99.814
697.593	99.103
697.721	98.990
697.849	99.144
697.977	98.216
698.105	99.278
698.233	100.072
698.362	99.495
698.490	100.598
698.618	99.897
698.746	98.124
698.874	98.608
699.002	97.577
699.130	97.784
699.258	98.856
699.387	99.052
699.515	99.639
699.643	99.351
699.771	99.608
699.899	99.907
700.027	98.165
700.155	98.103
700.283	99.082
700.412	97.474
700.540	99.546
700.668	98.134
700.796	98.567
700.924	99.515
701.052	100.134
701.180	98.155
701.308	97.371
701.437	98.753
701.565	97.629
701.693	98.124
701.821	98.691
701.949	100.320
702.077	99.515
702.205	100.402
702.333	99.588
702.462	98.608
702.590	97.103
702.718	98.825
702.846	98.639
702.974	97.918
703.102	98.557
703.230	98.371
703.358	98.588
703.487	97.887
703.615	98.928
703.743	97.825
703.871	98.474
703.999	99.412
704.127	98.608
704.255	99.134
704.383	99.711
704.512	99.247
704.640	98.691
704.768	98.371
704.896	98.660
705.024	98.258
705.152	99.691
705.280	99.227
705.408	98.691
705.537	98.887
705.665	98.144
705.793	99.918
705.921	97.000
706.049	97.814
706.177	99.299
706.305	98.639
706.433	99.515
706.562	97.443
706.690	98.825
706.818	99.825
706.946	99.155
707.074	98.186
707.202	98.186
707.330	98.474
707.458	99.052
707.587	99.361
707.715	98.938
707.843	98.670
707.971	98.505
708.099	98.979
708.227	97.938
708.355	97.340
708.483	97.258
708.612	98.010
708.740	98.041
708.868	99.134
708.996	96.969
709.124	98.454
709.252	98.742
709.380	98.887
709.508	98.732
709.637	98.629
709.765	98.979
709.893	98.979
710.021	98.753
710.149	98.567
710.277	99.990
710.405	99.598
710.533	99.134
710.662	98.732
710.790	97.763
710.918	98.330
711.046	97.732
711.174	99.948
711.302	97.979
711.430	99.041
711.558	99.814
711.687	97.938
711.815	99.082
711.943	99.278
712.071	97.330
712.199	98.485
712.327	97.845
712.455	99.423
712.583	98.948
712.712	98.237
712.840	97.742
712.968	98.330
713.096	100.526
713.224	98.660
713.352	99.887
713.480	98.134
713.608	97.814
713.737	98.907
713.865	98.814
713.993	98.474
714.121	98.289
714.249	98.918
714.377	99.258
714.505	99.320
714.633	98.959
714.762	97.412
714.890	99.289
715.018	99.392
715.146	98.804
715.274	98.103
715.402	98.381
715.530	98.134
715.658	98.907
715.787	97.969
715.915	98.021
716.043	98.680
716.171	100.103
716.299	97.639
716.427	98.990
716.555	100.804
716.683	99.495
716.812	99.526
716.940	99.567
717.068	100.103
717.196	98.433
717.324	97.330
717.452	97.052
717.580	97.804
717.708	98.546
717.837	98.381
717.965	97.639
718.093	99.423
718.221	98.835
718.349	100.196
718.477	99.866
718.605	98.794
718.733	99.412
718.862	98.320
718.990	98.443
719.118	96.526
719.246	97.186
719.374	98.845
719.502	98.649
719.630	97.505
719.758	99.629
719.887	99.155
720.015	98.412
720.143	98.474
720.271	100.546
720.399	98.938
720.527	98.887
720.655	97.990
720.783	98.289
720.912	99.794
721.040	98.340
721.168	98.546
721.296	97.814
721.424	97.082
721.552	97.268
721.680	97.351
721.808	98.299
721.937	98.103
722.065	98.588
722.193	99.742
722.321	98.773
722.449	97.722
722.577	99.938
722.705	98.608
722.833	97.402
722.962	97.072
723.090	98.990
723.218	98.330
723.346	98.309
723.474	100.072
723.602	98.814
723.730	98.423
723.858	99.588
723.987	99.093
724.115	98.773
724.243	98.515
724.371	98.670
724.499	99.113
724.627	98.454
724.755	99.082
724.883	99.175
725.012	97.629
725.140	96.990
725.268	99.526
725.396	98.763
725.524	98.629
725.652	97.722
725.780	97.402
725.908	97.804
726.037	97.103
726.165	98.732
726.293	97.392
726.421	98.299
726.549	98.619
726.677	99.175
726.805	97.835
726.933	100.268
727.062	98.000
727.190	97.691
727.318	98.732
727.446	99.113
727.574	98.938
727.702	98.299
727.830	99.186
727.958	99.392
728.087	97.866
728.215	98.629
728.343	98.196
728.471	98.412
728.599	97.856
728.727	98.557
728.855	98.711
728.983	97.876
729.112	98.289
729.240	98.186
729.368	99.608
729.496	100.206
729.624	98.000
729.752	99.340
729.880	99.557
730.008	99.381
730.137	97.866
730.265	99.144
730.393	99.206
730.521	98.887
730.649	99.649
730.777	97.969
730.905	99.062
731.033	98.784
731.162	99.031
731.290	97.732
731.418	97.763
731.546	97.753
731.674	97.629
731.802	97.825
731.930	98.577
732.058	99.052
732.187	98.258
732.315	99.320
732.443	98.753
732.571	97.495
732.699	98.763
732.827	99.041
732.955	97.835
733.083	97.577
733.212	96.938
733.340	96.639
733.468	97.866
733.596	97.773
733.724	98.598
733.852	98.546
733.980	97.938
734.108	97.928
734.237	97.557
734.365	97.979
734.493	98.464
734.621	99.588
734.749	98.866
734.877	99.134
735.005	97.196
735.133	98.784
735.262	97.763
735.390	98.866
735.518	97.464
735.646	97.289
735.774	98.443
735.902	98.948
736.030	98.340
736.158	98.299
736.287	98.918
736.415	98.186
736.543	97.351
736.671	98.588
736.799	99.680
736.927	98.278
737.055	97.227
737.183	97.247
737.312	98.794
737.440	98.216
737.568	99.186
737.696	98.701
737.824	99.227
737.952	97.454
738.080	98.175
738.208	98.031
738.337	98.134
738.465	97.598
738.593	98.134
738.721	98.907
738.849	99.299
738.977	98.247
739.105	97.165
739.233	97.897
739.362	97.412
739.490	97.876
739.618	98.062
739.746	98.784
739.874	97.412
740.002	99.897
740.130	97.320
740.258	98.155
740.387	99.732
740.515	99.082
740.643	99.155
740.771	98.649
740.899	98.773
741.027	97.639
741.155	97.629
741.283	98.639
741.412	97.289
741.540	98.443
741.668	98.258
741.796	97.732
741.924	97.155
742.052	98.186
742.180	99.381
742.308	98.536
742.437	99.155
742.565	98.897
742.693	97.722
742.821	99.320
742.949	99.691
743.077	98.907
743.205	99.515
743.333	99.289
743.462	99.639
743.590	97.536
743.718	98.330
743.846	97.546
743.974	97.289
744.102	98.598
744.230	99.680
744.358	98.536
744.487	98.041
744.615	99.103
744.743	98.175
744.871	98.402
744.999	97.371
745.127	98.443
745.255	96.412
745.383	96.134
745.512	98.794
745.640	99.031
745.768	98.165
745.896	97.124
746.024	98.474
746.152	98.268
746.280	97.866
746.408	98.381
746.537	98.165
746.665	98.897
746.793	97.845
746.921	98.784
747.049	97.423
747.177	99.031
747.305	98.227
747.433	98.423
747.562	98.794
747.690	97.258
747.818	98.598
747.946	99.505
748.074	96.918
748.202	97.742
748.330	97.711
748.458	98.948
748.587	97.577
748.715	98.258
748.843	98.959
748.971	98.000
749.099	98.227
749.227	97.784
749.355	96.742
749.483	98.773
749.612	97.763
749.740	96.979
749.868	98.010
749.996	97.876
750.124	99.227
750.252	98.691
750.380	98.072
750.508	98.856
750.637	98.309
750.765	97.918
750.893	98.402
751.021	97.289
751.149	97.454
751.277	97.619
751.405	97.691
751.533	98.505
751.662	98.887
751.790	98.732
751.918	100.041
752.046	98.103
752.174	98.515
752.302	98.454
752.430	98.876
752.558	99.165
752.687	98.165
752.815	97.351
752.943	99.845
753.071	98.216
753.199	98.186
753.327	98.237
753.455	97.577
753.583	98.351
753.712	97.876
753.840	97.711
753.968	97.742
754.096	95.763
754.224	97.876
754.352	97.567
754.480	98.371
754.608	99.155
754.737	97.928
754.865	98.598
754.993	99.856
755.121	97.155
755.249	97.990
755.377	96.990
755.505	98.371
755.633	98.608
755.762	97.588
755.890	97.258
756.018	98.010
756.146	98.876
756.274	99.165
756.402	99.227
756.530	97.567
756.658	99.155
756.787	97.381
756.915	95.928
757.043	97.773
757.171	98.845
757.299	97.722
757.427	98.649
757.555	97.680
757.683	99.186
757.812	98.093
757.940	99.052
758.068	99.381
758.196	98.825
758.324	99.423
758.452	98.835
758.580	96.649
758.708	98.351
758.837	97.804
758.965	98.918
759.093	98.216
759.221	98.990
759.349	98.464
759.477	99.412
759.605	97.124
759.733	98.763
759.862	99.082
759.990	97.938
760.118	98.010
760.246	98.773
760.374	99.433
760.502	99.155
760.630	98.753
760.758	98.351
760.887	97.711
761.015	96.763
761.143	98.443
761.271	97.639
761.399	97.856
761.527	99.577
761.655	98.423
761.783	98.649
761.912	99.289
762.040	98.639
762.168	99.227
762.296	98.773
762.424	99.031
762.552	97.866
762.680	97.216
762.808	98.031
762.937	98.010
763.065	98.093
763.193	99.289
763.321	98.938
763.449	97.639
763.577	97.959
763.705	99.165
763.833	97.629
763.962	97.670
764.090	97.474
764.218	99.206
764.346	96.959
764.474	98.124
764.602	99.031
764.730	97.711
764.858	100.206
764.987	98.072
765.115	98.052
765.243	98.082
765.371	97.979
765.499	97.000
765.627	97.443
765.755	97.990
765.883	97.825
766.012	98.423
766.140	97.474
766.268	98.371
766.396	97.742
766.524	96.825
766.652	97.577
766.780	96.639
766.908	97.351
767.037	98.753
767.165	98.866
767.293	99.175
767.421	99.515
767.549	97.711
767.677	99.021
767.805	98.258
767.933	98.010
768.062	98.887
768.190	97.701
768.318	99.103
768.446	97.000
768.574	98.144
768.702	98.722
768.830	97.670
768.958	97.124
769.087	97.742
769.215	98.546
769.343	97.742
769.471	99.289
769.599	98.680
769.727	98.639
769.855	98.124
769.983	97.134
770.112	98.412
770.240	98.856
770.368	99.021
770.496	100.639
770.624	99.598
770.752	98.299
770.880	97.753
771.008	99.227
771.137	98.289
771.265	97.505
771.393	99.000
771.521	98.845
771.649	99.237
771.777	99.010
771.905	98.371
772.033	100.124
772.162	98.495
772.290	97.495
772.418	98.938
772.546	97.732
772.674	99.175
772.802	98.639
772.930	97.742
773.058	97.897
773.187	97.330
773.315	98.948
773.443	97.814
773.571	97.773
773.699	97.000
773.827	96.268
773.955	99.258
774.083	98.557
774.212	98.969
774.340	97.381
774.468	97.289
774.596	97.876
774.724	98.227
774.852	98.258
774.980	98.918
775.108	98.567
775.237	96.959
775.365	97.938
775.493	98.649
775.621	97.299
775.749	98.278
775.877	99.536
776.005	98.701
776.133	98.825
776.262	99.608
776.390	98.474
776.518	98.619
776.646	98.495
776.774	97.052
776.902	98.216
777.030	97.557
777.158	99.113
777.287	98.629
777.415	99.577
777.543	98.753
777.671	98.052
777.799	99.206
777.927	98.825
778.055	98.639
778.183	99.041
778.312	97.639
778.440	96.969
778.568	98.371
778.696	98.330
778.824	99.103
778.952	99.402
779.080	97.021
779.208	98.082
779.337	98.299
779.465	99.062
779.593	99.515
779.721	99.268
779.849	98.474
779.977	99.742
780.105	98.856
780.233	98.320
780.362	98.124
780.490	99.103
780.618	97.577
780.746	98.969
780.874	98.887
781.002	97.928
781.130	98.082
781.258	98.351
781.387	98.536
781.515	97.361
781.643	99.000
781.771	97.742
781.899	99.247
782.027	98.454
782.155	98.608
782.283	97.433
782.412	97.773
782.540	99.969
782.668	98.454
782.796	98.557
782.924	99.784
783.052	97.206
783.180	98.278
783.308	99.320
783.437	97.897
783.565	98.773
783.693	99.165
783.821	98.526
783.949	99.031
784.077	98.763
784.205	97.536
784.333	100.010
784.462	99.144
784.590	100.515
784.718	99.144
784.846	99.423
784.974	98.268
785.102	98.711
785.230	99.289
785.358	99.206
785.487	99.216
785.615	99.134
785.743	98.969
785.871	98.103
785.999	99.412
786.127	98.021
786.255	98.299
786.383	99.474
786.512	98.608
786.640	99.021
786.768	98.959
786.896	98.887
787.024	98.876
787.152	97.258
787.280	98.186
787.408	98.732
787.537	98.959
787.665	99.041
787.793	97.464
787.921	98.948
788.049	99.237
788.177	99.412
788.305	99.330
788.433	98.763
788.562	98.237
788.690	98.598
788.818	98.845
788.946	98.670
789.074	97.794
789.202	98.412
789.330	98.825
789.458	98.887
789.587	98.825
789.715	98.990
789.843	99.866
789.971	99.247
790.099	98.835
790.227	97.010
790.355	96.660
790.483	97.598
790.612	98.320
790.740	99.856
790.868	99.268
790.996	97.845
791.124	98.907
791.252	98.670
791.380	98.629
791.508	98.619
791.637	98.670
791.765	98.784
791.893	97.268
792.021	98.526
792.149	97.794
792.277	98.948
792.405	98.577
792.533	98.639
792.662	97.897
792.790	99.474
792.918	100.722
793.046	97.412
793.174	99.835
793.302	99.711
793.430	99.794
793.558	99.495
793.687	99.237
793.815	98.990
793.943	98.546
794.071	97.258
794.199	97.670
794.327	98.010
794.455	98.351
794.583	98.918
794.712	99.103
794.840	97.402
794.968	98.928
795.096	97.186
795.224	98.320
795.352	99.351
795.480	98.588
795.608	98.649
795.737	99.866
795.865	98.701
795.993	98.691
796.121	99.887
796.249	98.856
796.377	98.433
796.505	98.474
796.633	98.784
796.762	98.443
796.890	99.969
797.018	99.330
797.146	98.608
797.274	97.124
797.402	97.814
797.530	98.660
797.658	99.546
797.787	100.763
797.915	98.804
798.043	98.948
798.171	99.938
798.299	98.577
798.427	99.784
798.555	98.155
798.683	99.340
798.812	99.247
798.940	98.619
799.068	98.021
799.196	98.278
799.324	97.742
799.452	98.515
799.580	99.216
799.708	98.330
799.837	99.289
799.965	99.330
800.093	99.082
800.221	99.845
800.349	100.598
800.477	99.381
800.605	99.216
800.733	99.897
800.862	98.505
800.990	99.711
801.118	99.763
801.246	98.175
801.374	98.680
801.502	98.485
801.630	98.340
801.758	100.495
801.887	98.175
802.015	98.639
802.143	98.278
802.271	99.794
802.399	98.474
802.527	99.701
802.655	98.907
802.783	98.856
802.912	98.660
803.040	98.773
803.168	97.979
803.296	98.887
803.424	97.680
803.552	98.351
803.680	99.753
803.808	97.814
803.937	98.474
804.065	98.412
804.193	98.804
804.321	98.928
804.449	99.680
804.577	97.577
804.705	98.278
804.833	97.567
804.962	97.588
805.090	98.742
805.218	100.031
805.346	99.381
805.474	99.258
805.602	99.804
805.730	97.443
805.858	97.948
805.987	97.938
806.115	98.309
806.243	98.990
806.371	98.567
806.499	99.041
806.627	98.804
806.755	99.165
806.883	99.402
807.012	99.082
807.140	98.186
807.268	97.876
807.396	98.412
807.524	99.897
807.652	98.536
807.780	99.784
807.908	98.371
808.037	98.722
808.165	99.289
808.293	98.320
808.421	98.619
808.549	99.361
808.677	98.423
808.805	98.876
808.933	99.206
809.062	97.320
809.190	98.722
809.318	100.031
809.446	99.175
809.574	98.907
809.702	98.505
809.830	99.289
809.958	98.196
810.087	97.649
810.215	98.897
810.343	98.825
810.471	100.186
810.599	98.402
810.727	99.423
810.855	98.155
810.983	99.485
811.112	99.649
811.240	97.979
811.368	97.959
811.496	98.804
811.624	99.907
811.752	99.619
811.880	99.381
812.008	99.433
812.137	98.845
812.265	98.753
812.393	98.031
812.521	97.825
812.649	99.041
812.777	99.175
812.905	98.072
813.033	98.629
813.162	97.938
813.290	99.835
813.418	98.608
813.546	99.464
813.674	97.773
813.802	97.887
813.930	98.660
814.058	98.887
814.187	99.196
814.315	98.629
814.443	98.784
814.571	97.186
814.699	98.433
814.827	99.031
814.955	99.619
815.083	100.268
815.212	98.835
815.340	98.969
815.468	97.340
815.596	98.979
815.724	99.299
815.852	98.505
815.980	99.196
816.108	99.351
816.237	99.041
816.365	98.515
816.493	98.289
816.621	98.134
816.749	98.969
816.877	98.196
817.005	100.299
817.133	98.289
817.262	99.794
817.390	100.227
817.518	98.021
817.646	97.474
817.774	99.031
817.902	99.052
818.030	98.155
818.158	99.165
818.287	99.423
818.415	98.546
818.543	98.629
818.671	99.732
818.799	97.773
818.927	97.433
819.055	97.990
819.183	99.423
819.312	98.464
819.440	98.216
819.568	99.794
819.696	99.515
819.824	99.031
819.952	98.103
820.080	97.969
820.208	98.309
820.337	100.588
820.465	98.814
820.593	98.361
820.721	99.134
820.849	98.144
820.977	98.186
821.105	99.392
821.233	99.536
821.362	98.753
821.490	98.969
821.618	99.072
821.746	96.505
821.874	97.742
822.002	98.000
822.130	99.299
822.258	97.856
822.387	98.175
822.515	99.227
822.643	98.619
822.771	96.897
822.899	98.598
823.027	98.794
823.155	97.041
823.283	98.979
823.412	99.773
823.540	98.629
823.668	99.567
823.796	99.134
823.924	100.186
824.052	98.454
824.180	97.351
824.308	99.320
824.437	98.093
824.565	99.289
824.693	99.825
824.821	98.309
824.949	99.887
825.077	97.969
825.205	98.041
825.333	97.577
825.462	98.423
825.590	97.753
825.718	97.763
825.846	98.907
825.974	98.381
826.102	98.454
826.230	98.392
826.358	98.165
826.487	98.588
826.615	96.856
826.743	99.330
826.871	99.021
826.999	99.082
827.127	99.485
827.255	98.742
827.383	97.804
827.512	97.309
827.640	99.784
827.768	98.124
827.896	97.835
828.024	98.577
828.152	98.588
828.280	99.887
828.408	99.216
828.537	98.433
828.665	98.412
828.793	98.443
828.921	99.000
829.049	97.825
829.177	97.474
829.305	98.515
829.433	97.144
829.562	97.423
829.690	98.186
829.818	98.464
829.946	97.814
830.074	97.577
830.202	98.629
830.330	97.918
830.458	98.639
830.587	99.454
830.715	98.433
830.843	98.134
830.971	98.206
831.099	97.433
831.227	97.876
831.355	98.711
831.483	98.124
831.612	98.588
831.740	98.588
831.868	98.753
831.996	99.773
832.124	99.371
832.252	97.691
832.380	98.320
832.508	98.732
832.637	99.072
832.765	99.165
832.893	98.938
833.021	97.660
833.149	98.876
833.277	98.330
833.405	99.526
833.533	97.742
833.662	98.082
833.790	97.814
833.918	99.134
834.046	98.278
834.174	99.412
834.302	97.887
834.430	98.887
834.558	98.948
834.687	98.093
834.815	97.835
834.943	98.144
835.071	98.216
835.199	97.629
835.327	98.557
835.455	98.464
835.583	98.938
835.712	98.722
835.840	97.897
835.968	97.722
836.096	98.629
836.224	98.680
836.352	98.866
836.480	98.474
836.608	97.557
836.737	99.402
836.865	98.402
836.993	98.010
837.121	98.299
837.249	97.680
837.377	98.103
837.505	97.856
837.633	98.557
837.762	98.433
837.890	97.990
838.018	98.021
838.146	98.216
838.274	98.134
838.402	98.835
838.530	97.959
838.658	97.216
838.787	98.041
838.915	98.340
839.043	98.495
839.171	98.505
839.299	99.856
839.427	97.701
839.555	98.412
839.683	99.990
839.812	98.856
839.940	98.732
840.068	98.258
840.196	98.155
840.324	99.000
840.452	97.825
840.580	97.866
840.708	98.732
840.837	98.309
840.965	99.186
841.093	99.443
841.221	99.330
841.349	100.258
841.477	99.784
841.605	97.165
841.733	97.278
841.862	100.454
841.990	98.794
842.118	98.804
842.246	98.608
842.374	99.093
842.502	98.278
842.630	99.742
842.758	98.186
842.887	98.206
843.015	98.443
843.143	97.619
843.271	98.371
843.399	99.340
843.527	97.753
843.655	99.227
843.783	98.031
843.912	98.876
844.040	99.907
844.168	100.763
844.296	100.227
844.424	99.216
844.552	98.402
844.680	98.186
844.808	98.876
844.937	98.464
845.065	98.732
845.193	100.155
845.321	98.485
845.449	99.237
845.577	99.113
845.705	99.144
845.833	99.299
845.962	98.804
846.090	97.041
846.218	98.144
846.346	99.742
846.474	97.660
846.602	98.320
846.730	98.330
846.858	98.639
846.987	98.381
847.115	99.175
847.243	98.753
847.371	98.536
847.499	97.175
847.627	99.165
847.755	98.268
847.883	98.381
848.012	98.763
848.140	99.546
848.268	98.371
848.396	98.134
848.524	99.928
848.652	100.454
848.780	96.845
848.908	99.144
849.037	98.052
849.165	98.670
849.293	97.134
849.421	100.402
849.549	98.794
849.677	97.361
849.805	99.784
849.933	99.464
850.062	99.247
850.190	98.175
850.318	98.732
850.446	98.423
850.574	98.000
850.702	99.454
850.830	97.701
850.958	98.918
851.087	98.588
851.215	98.330
851.343	98.866
851.471	97.567
851.599	99.546
851.727	98.320
851.855	99.206
851.983	98.268
852.112	98.557
852.240	98.515
852.368	98.608
852.496	98.495
852.624	98.670
852.752	97.031
852.880	98.536
853.008	98.526
853.137	99.680
853.265	98.124
853.393	99.309
853.521	97.948
853.649	99.124
853.777	97.062
853.905	98.526
854.033	97.732
854.162	99.330
854.290	99.093
854.418	96.948
854.546	96.619
854.674	98.856
854.802	98.918
854.930	98.072
855.058	97.588
855.187	98.165
855.315	98.351
855.443	98.361
855.571	98.608
855.699	98.907
855.827	97.969
855.955	98.052
856.083	98.392
856.212	98.990
856.340	98.588
856.468	98.577
856.596	99.206
856.724	98.649
856.852	98.680
856.980	97.629
857.108	98.371
857.237	98.268
857.365	98.000
857.493	99.021
857.621	97.567
857.749	97.969
857.877	97.371
858.005	98.928
858.133	98.536
858.262	98.351
858.390	98.412
858.518	98.268
858.646	99.567
858.774	98.639
858.902	99.402
859.030	98.361
859.158	98.454
859.287	98.804
859.415	97.845
859.543	98.423
859.671	99.402
859.799	99.866
859.927	97.959
860.055	98.577
860.183	99.371
860.312	98.124
860.440	97.041
860.568	98.423
860.696	98.536
860.824	98.835
860.952	98.299
861.080	98.526
861.208	100.289
861.337	97.247
861.465	97.320
861.593	98.608
861.721	99.835
861.849	97.505
861.977	97.711
862.105	98.742
862.233	97.732
862.362	98.041
862.490	98.567
862.618	98.691
862.746	99.186
862.874	99.649
863.002	98.845
863.130	99.639
863.258	100.041
863.387	98.546
863.515	99.247
863.643	97.227
863.771	99.155
863.899	99.381
864.027	99.887
864.155	99.670
864.283	98.113
864.412	100.010
864.540	99.247
864.668	97.804
864.796	99.371
864.924	99.629
865.052	98.515
865.180	99.804
865.308	99.320
865.437	99.216
865.565	98.402
865.693	98.742
865.821	98.031
865.949	98.990
866.077	99.608
866.205	97.412
866.333	97.732
866.462	97.371
866.590	98.691
866.718	97.938
866.846	99.763
866.974	99.670
867.102	99.000
867.230	97.835
867.358	98.186
867.487	98.433
867.615	99.072
867.743	99.031
867.871	100.227
867.999	99.196
868.127	98.361
868.255	99.227
868.383	99.546
868.512	99.588
868.640	97.495
868.768	98.856
868.896	98.536
869.024	98.454
869.152	98.536
869.280	99.443
869.408	100.938
869.537	99.206
869.665	98.959
869.793	98.938
869.921	99.392
870.049	100.433
870.177	99.588
870.305	100.093
870.433	99.464
870.562	98.876
870.690	98.505
870.818	99.289
870.946	99.856
871.074	99.299
871.202	98.082
871.330	99.557
871.458	98.701
871.587	99.371
871.715	99.299
871.843	98.959
871.971	99.711
872.099	97.392
872.227	98.536
872.355	98.536
872.483	98.309
872.612	99.402
872.740	99.474
872.868	99.268
872.996	98.454
873.124	99.722
873.252	101.268
873.380	99.351
873.508	99.216
873.637	100.082
873.765	98.835
873.893	98.649
874.021	100.474
874.149	98.866
874.277	99.969
874.405	99.454
874.533	99.928
874.662	99.196
874.790	98.825
874.918	99.041
875.046	99.010
875.174	99.072
875.302	98.598
875.430	98.412
875.558	98.155
875.687	99.443
875.815	100.814
875.943	98.742
876.071	99.701
876.199	100.113
876.327	99.474
876.455	100.680
876.583	99.938
876.712	98.959
876.840	97.577
876.968	100.186
877.096	98.866
877.224	100.031
877.352	97.711
877.480	98.402
877.608	100.186
877.737	98.670
877.865	97.948
877.993	99.515
878.121	99.268
878.249	100.320
878.377	98.392
878.505	98.330
878.633	100.330
878.762	98.691
878.890	98.866
879.018	98.784
879.146	99.134
879.274	99.289
879.402	99.897
879.530	99.134
879.658	99.216
879.787	97.887
879.915	98.299
880.043	99.454
880.171	99.526
880.299	99.392
880.427	98.938
880.555	99.557
880.683	99.175
880.812	99.928
880.940	99.072
881.068	99.381
881.196	99.093
881.324	100.784
881.452	99.227
881.580	98.773
881.708	99.155
881.837	99.247
881.965	98.546
882.093	98.711
882.221	100.268
882.349	98.010
882.477	99.495
882.605	99.412
882.733	100.021
882.862	99.887
882.990	99.897
883.118	100.825
883.246	99.134
883.374	98.959
883.502	98.773
883.630	100.897
883.758	100.567
883.887	99.361
884.015	100.072
884.143	99.680
884.271	100.124
884.399	98.763
884.527	99.021
884.655	99.144
884.783	101.237
884.912	99.031
885.040	99.495
885.168	98.536
885.296	99.010
885.424	99.268
885.552	99.412
885.680	99.021
885.808	99.402
885.937	101.134
886.065	100.175
886.193	98.948
886.321	98.660
886.449	99.804
886.577	99.794
886.705	99.660
886.833	99.052
886.962	100.526
887.090	99.165
887.218	99.907
887.346	98.773
887.474	99.433
887.602	99.814
887.730	98.247
887.858	100.144
887.987	99.351
888.115	98.423
888.243	101.093
888.371	100.866
888.499	100.062
888.627	99.103
888.755	99.969
888.883	100.021
889.012	99.608
889.140	99.072
889.268	99.124
889.396	100.237
889.524	99.412
889.652	99.536
889.780	99.464
889.908	98.711
890.037	99.887
890.165	98.134
890.293	99.773
890.421	99.062
890.549	100.763
890.677	99.320
890.805	99.474
890.933	99.701
891.062	99.918
891.190	99.897
891.318	99.381
891.446	100.062
891.574	99.629
891.702	99.289
891.830	99.814
891.958	100.794
892.087	100.969
892.215	100.103
892.343	101.072
892.471	99.928
892.599	99.938
892.727	100.845
892.855	100.918
892.983	100.351
893.112	99.588
893.240	99.876
893.368	100.753
893.496	100.443
893.624	99.361
893.752	101.216
893.880	99.072
894.008	100.206
894.137	99.938
894.265	99.773
894.393	100.742
894.521	99.464
894.649	100.433
894.777	99.536
894.905	100.258
895.033	101.227
895.162	100.186
895.290	100.866
895.418	100.588
895.546	100.742
895.674	98.361
895.802	100.299
895.930	99.433
896.058	99.351
896.187	100.021
896.315	101.124
896.443	100.113
896.571	100.825
896.699	101.186
896.827	100.021
896.955	99.763
897.083	100.969
897.212	101.763
897.340	99.464
897.468	99.701
897.596	100.165
897.724	99.629
897.852	100.649
897.980	100.144
898.108	98.588
898.237	99.237
898.365	99.732
898.493	99.567
898.621	100.062
898.749	101.010
898.877	100.206
899.005	99.557
899.133	101.330
899.262	98.814
899.390	99.423
899.518	100.670
899.646	99.814
899.774	100.722
899.902	100.588
900.030	100.186
900.158	99.814
900.287	99.948
900.415	100.216
900.543	100.526
900.671	101.928
900.799	101.289
900.927	101.309
901.055	99.897
901.183	100.165
901.312	99.856
901.440	100.732
901.568	102.093
901.696	99.907
901.824	100.670
901.952	100.918
902.080	99.701
902.208	100.351
902.337	101.649
902.465	100.443
902.593	100.670
902.721	100.990
902.849	99.907
902.977	99.320
903.105	100.969
903.233	100.113
903.362	100.320
903.490	99.299
903.618	100.072
903.746	100.268
903.874	100.113
904.002	101.134
904.130	100.371
904.258	100.763
904.387	101.722
904.515	100.649
904.643	100.825
904.771	100.969
904.899	100.237
905.027	99.464
905.155	98.948
905.283	100.206
905.412	99.948
905.540	99.773
905.668	99.897
905.796	100.773
905.924	100.402
906.052	101.124
906.180	100.588
906.308	99.825
906.437	98.495
906.565	100.227
906.693	100.691
906.821	99.165
906.949	100.443
907.077	100.082
907.205	101.216
907.333	100.082
907.462	102.216
907.590	100.247
907.718	99.351
907.846	101.464
907.974	101.412
908.102	99.433
908.230	99.062
908.358	99.577
908.487	99.649
908.615	101.206
908.743	100.062
908.871	101.804
908.999	101.536
909.127	101.082
909.255	99.402
909.383	99.639
909.512	100.711
909.640	101.206
909.768	101.320
909.896	101.381
910.024	101.392
910.152	100.711
910.280	100.320
910.408	100.897
910.537	101.546
910.665	100.701
910.793	100.299
910.921	100.041
911.049	100.691
911.177	100.186
911.305	101.031
911.433	101.320
911.562	101.165
911.690	100.835
911.818	100.567
911.946	101.381
912.074	101.474
912.202	101.567
912.330	100.268
912.458	100.876
912.587	100.186
912.715	100.515
912.843	101.062
912.971	101.124
913.099	101.515
913.227	101.216
913.355	101.052
913.483	99.938
913.612	100.784
913.740	101.443
913.868	101.495
