sample14h_at_750.00nm_cut_at_1060.50Y_01.dat
19.06.2023
11:21:47
cut middle at Y: 1060.50
top cursor: 1109 down cursor: 1012 mean of: 97 lines , 2560 datapoints
wavelength(nm)	intensity[arb. units]
585.996	804.072
586.124	772.113
586.252	779.144
586.380	778.464
586.508	777.742
586.637	785.072
586.765	780.320
586.893	791.845
587.021	793.134
587.149	784.680
587.277	796.062
587.405	789.773
587.533	786.784
587.662	790.247
587.790	800.216
587.918	796.000
588.046	799.835
588.174	797.918
588.302	789.216
588.430	796.052
588.558	796.691
588.687	797.948
588.815	803.845
588.943	806.577
589.071	799.691
589.199	805.907
589.327	806.979
589.455	803.990
589.583	807.196
589.712	816.412
589.840	808.969
589.968	804.918
590.096	812.227
590.224	816.000
590.352	813.134
590.480	811.093
590.608	815.876
590.737	821.175
590.865	814.021
590.993	827.031
591.121	823.897
591.249	825.557
591.377	817.742
591.505	817.948
591.633	826.237
591.762	825.155
591.890	826.526
592.018	832.402
592.146	831.072
592.274	839.794
592.402	826.505
592.530	825.103
592.658	820.680
592.787	832.155
592.915	833.649
593.043	823.402
593.171	835.938
593.299	840.639
593.427	833.680
593.555	828.629
593.683	844.763
593.812	832.701
593.940	838.082
594.068	845.773
594.196	845.526
594.324	832.175
594.452	847.371
594.580	849.711
594.708	844.082
594.837	843.227
594.965	848.753
595.093	842.876
595.221	850.010
595.349	857.680
595.477	859.258
595.605	857.608
595.733	867.412
595.862	858.454
595.990	858.753
596.118	864.485
596.246	873.113
596.374	855.938
596.502	871.103
596.630	860.588
596.758	867.577
596.887	874.196
597.015	870.990
597.143	867.856
597.271	865.330
597.399	873.268
597.527	874.371
597.655	877.186
597.783	874.701
597.912	868.464
598.040	877.753
598.168	875.485
598.296	872.103
598.424	875.402
598.552	883.206
598.680	870.340
598.808	873.742
598.937	878.794
599.065	883.959
599.193	878.577
599.321	878.309
599.449	881.052
599.577	882.959
599.705	872.474
599.833	885.938
599.962	874.423
600.090	879.557
600.218	883.794
600.346	878.186
600.474	885.093
600.602	885.680
600.730	888.093
600.858	885.701
600.987	886.330
601.115	883.278
601.243	884.959
601.371	882.990
601.499	886.144
601.627	885.794
601.755	893.536
601.883	888.660
602.012	896.237
602.140	898.577
602.268	894.206
602.396	900.186
602.524	892.526
602.652	904.454
602.780	906.536
602.908	912.247
603.037	904.639
603.165	909.505
603.293	913.680
603.421	917.660
603.549	910.309
603.677	918.670
603.805	916.577
603.933	924.567
604.062	919.814
604.190	934.454
604.318	935.021
604.446	936.196
604.574	934.155
604.702	926.701
604.830	932.784
604.958	942.608
605.087	946.825
605.215	950.722
605.343	949.876
605.471	950.515
605.599	952.567
605.727	954.866
605.855	956.031
605.983	955.289
606.112	953.423
606.240	965.701
606.368	959.155
606.496	956.433
606.624	962.784
606.752	958.979
606.880	961.835
607.008	963.608
607.137	961.485
607.265	972.845
607.393	970.639
607.521	976.361
607.649	974.660
607.777	969.216
607.905	972.639
608.033	983.392
608.162	961.031
608.290	964.309
608.418	976.062
608.546	975.031
608.674	983.897
608.802	975.258
608.930	980.216
609.058	976.237
609.187	970.990
609.315	960.340
609.443	974.113
609.571	972.000
609.699	968.278
609.827	968.196
609.955	968.897
610.083	961.062
610.212	966.289
610.340	970.361
610.468	971.897
610.596	973.588
610.724	967.598
610.852	968.289
610.980	970.763
611.108	971.340
611.237	971.845
611.365	980.701
611.493	982.062
611.621	979.258
611.749	987.990
611.877	983.505
612.005	971.227
612.133	981.340
612.262	987.629
612.390	981.464
612.518	989.763
612.646	984.412
612.774	988.928
612.902	993.144
613.030	994.155
613.158	993.361
613.287	994.144
613.415	1001.567
613.543	998.052
613.671	997.670
613.799	995.227
613.927	993.557
614.055	1000.526
614.183	1015.495
614.312	1002.320
614.440	1012.629
614.568	1006.660
614.696	1017.938
614.824	1016.155
614.952	1019.093
615.080	1012.278
615.208	1019.959
615.337	1023.495
615.465	1016.165
615.593	1022.021
615.721	1024.567
615.849	1024.093
615.977	1033.763
616.105	1025.196
616.233	1029.247
616.362	1026.732
616.490	1022.082
616.618	1022.258
616.746	1032.691
616.874	1029.866
617.002	1032.876
617.130	1030.433
617.258	1040.639
617.387	1021.237
617.515	1028.670
617.643	1039.464
617.771	1036.814
617.899	1040.247
618.027	1036.928
618.155	1044.268
618.283	1036.598
618.412	1050.897
618.540	1045.124
618.668	1054.773
618.796	1033.588
618.924	1044.670
619.052	1045.670
619.180	1041.134
619.308	1049.443
619.437	1050.474
619.565	1044.680
619.693	1034.598
619.821	1054.299
619.949	1045.990
620.077	1045.608
620.205	1044.835
620.333	1051.794
620.462	1057.670
620.590	1059.918
620.718	1059.753
620.846	1058.010
620.974	1069.309
621.102	1051.701
621.230	1061.227
621.358	1063.897
621.487	1060.000
621.615	1062.412
621.743	1061.773
621.871	1055.361
621.999	1047.928
622.127	1056.402
622.255	1058.144
622.383	1065.000
622.512	1069.464
622.640	1055.186
622.768	1068.371
622.896	1061.856
623.024	1055.464
623.152	1070.515
623.280	1056.268
623.408	1059.722
623.537	1067.649
623.665	1065.742
623.793	1068.505
623.921	1066.711
624.049	1064.979
624.177	1065.763
624.305	1068.206
624.433	1074.010
624.562	1076.567
624.690	1053.928
624.818	1068.010
624.946	1069.753
625.074	1067.062
625.202	1070.619
625.330	1071.598
625.458	1071.155
625.587	1065.804
625.715	1068.979
625.843	1065.588
625.971	1070.000
626.099	1067.969
626.227	1069.732
626.355	1066.711
626.483	1076.804
626.612	1063.144
626.740	1066.062
626.868	1065.660
626.996	1077.814
627.124	1069.804
627.252	1064.660
627.380	1073.268
627.508	1070.082
627.637	1071.536
627.765	1076.753
627.893	1073.835
628.021	1064.021
628.149	1065.464
628.277	1069.134
628.405	1068.649
628.533	1064.711
628.662	1065.608
628.790	1077.330
628.918	1070.784
629.046	1076.165
629.174	1075.701
629.302	1069.856
629.430	1075.351
629.558	1077.309
629.687	1078.990
629.815	1068.897
629.943	1079.289
630.071	1080.062
630.199	1085.536
630.327	1078.835
630.455	1075.546
630.583	1087.670
630.712	1086.814
630.840	1078.784
630.968	1096.072
631.096	1088.072
631.224	1077.289
631.352	1083.021
631.480	1078.402
631.608	1085.918
631.737	1081.381
631.865	1096.124
631.993	1095.701
632.121	1092.876
632.249	1094.412
632.377	1104.021
632.505	1081.196
632.633	1094.536
632.762	1091.247
632.890	1097.227
633.018	1090.907
633.146	1088.897
633.274	1098.299
633.402	1086.505
633.530	1094.577
633.658	1094.381
633.787	1078.794
633.915	1088.443
634.043	1078.258
634.171	1090.247
634.299	1097.021
634.427	1080.433
634.555	1080.722
634.683	1080.784
634.812	1085.619
634.940	1093.990
635.068	1076.289
635.196	1076.784
635.324	1087.918
635.452	1081.454
635.580	1075.711
635.708	1075.247
635.837	1072.103
635.965	1073.031
636.093	1075.753
636.221	1077.959
636.349	1075.928
636.477	1073.629
636.605	1072.381
636.733	1061.732
636.862	1070.093
636.990	1065.505
637.118	1063.680
637.246	1068.918
637.374	1057.289
637.502	1051.928
637.630	1066.722
637.758	1057.216
637.887	1055.948
638.015	1055.402
638.143	1064.464
638.271	1045.649
638.399	1049.268
638.527	1048.093
638.655	1047.763
638.783	1056.515
638.912	1054.144
639.040	1045.113
639.168	1047.299
639.296	1048.990
639.424	1046.247
639.552	1052.412
639.680	1048.948
639.808	1038.588
639.937	1040.134
640.065	1050.763
640.193	1047.794
640.321	1040.660
640.449	1049.206
640.577	1046.093
640.705	1044.320
640.833	1040.990
640.962	1041.856
641.090	1038.144
641.218	1047.340
641.346	1029.691
641.474	1046.784
641.602	1039.897
641.730	1043.474
641.858	1037.237
641.987	1047.845
642.115	1051.206
642.243	1042.124
642.371	1049.639
642.499	1045.753
642.627	1051.371
642.755	1042.361
642.883	1045.990
643.012	1048.660
643.140	1042.041
643.268	1047.938
643.396	1035.227
643.524	1053.082
643.652	1053.186
643.780	1036.577
643.908	1048.093
644.037	1042.742
644.165	1036.722
644.293	1048.608
644.421	1057.021
644.549	1045.515
644.677	1043.515
644.805	1056.887
644.933	1043.093
645.062	1054.402
645.190	1046.072
645.318	1043.175
645.446	1054.907
645.574	1047.763
645.702	1039.392
645.830	1050.557
645.958	1066.711
646.087	1045.670
646.215	1047.485
646.343	1049.557
646.471	1041.928
646.599	1057.351
646.727	1047.691
646.855	1041.175
646.983	1041.536
647.112	1040.907
647.240	1053.289
647.368	1033.351
647.496	1046.247
647.624	1039.835
647.752	1049.309
647.880	1044.247
648.008	1046.216
648.137	1033.258
648.265	1026.763
648.393	1037.804
648.521	1039.412
648.649	1039.701
648.777	1029.990
648.905	1023.763
649.033	1020.227
649.162	1015.649
649.290	1029.948
649.418	1016.938
649.546	1023.526
649.674	1022.959
649.802	1021.680
649.930	1020.588
650.058	1011.474
650.187	1020.258
650.315	1012.845
650.443	1006.103
650.571	1014.948
650.699	1013.124
650.827	1014.804
650.955	1016.041
651.083	1011.021
651.212	1005.124
651.340	1012.000
651.468	1005.381
651.596	1011.866
651.724	1013.268
651.852	997.021
651.980	1006.825
652.108	1010.608
652.237	1001.010
652.365	997.144
652.493	1008.021
652.621	999.629
652.749	997.711
652.877	1002.072
653.005	999.897
653.133	1001.381
653.262	1003.433
653.390	995.505
653.518	998.546
653.646	994.474
653.774	985.299
653.902	1001.876
654.030	992.340
654.158	992.856
654.287	990.505
654.415	987.443
654.543	995.258
654.671	985.402
654.799	984.134
654.927	986.567
655.055	973.495
655.183	974.000
655.312	981.247
655.440	973.062
655.568	973.928
655.696	974.649
655.824	979.289
655.952	972.258
656.080	972.113
656.208	973.629
656.337	972.381
656.465	974.866
656.593	961.320
656.721	967.495
656.849	959.464
656.977	970.144
657.105	960.299
657.233	955.454
657.362	958.825
657.490	960.505
657.618	959.103
657.746	953.753
657.874	950.340
658.002	953.330
658.130	954.423
658.258	961.866
658.387	952.742
658.515	943.536
658.643	940.897
658.771	949.546
658.899	943.887
659.027	949.041
659.155	945.124
659.283	934.773
659.412	935.392
659.540	944.649
659.668	948.907
659.796	936.742
659.924	943.474
660.052	939.031
660.180	928.155
660.308	944.412
660.437	932.598
660.565	935.124
660.693	932.041
660.821	932.670
660.949	932.825
661.077	928.113
661.205	930.031
661.333	927.753
661.462	934.278
661.590	939.742
661.718	922.381
661.846	918.753
661.974	929.423
662.102	928.309
662.230	926.619
662.358	919.371
662.487	930.196
662.615	919.227
662.743	926.186
662.871	917.423
662.999	922.907
663.127	919.309
663.255	924.031
663.383	928.938
663.512	924.938
663.640	922.485
663.768	920.082
663.896	915.845
664.024	926.753
664.152	920.443
664.280	918.320
664.408	921.835
664.537	925.670
664.665	920.619
664.793	913.804
664.921	915.990
665.049	919.773
665.177	927.227
665.305	907.680
665.433	905.918
665.562	919.629
665.690	914.814
665.818	912.320
665.946	907.959
666.074	911.216
666.202	909.340
666.330	909.093
666.458	916.784
666.587	911.351
666.715	906.175
666.843	906.402
666.971	900.598
667.099	905.536
667.227	905.330
667.355	898.722
667.483	899.010
667.612	904.433
667.740	900.268
667.868	905.577
667.996	903.113
668.124	906.742
668.252	900.845
668.380	900.907
668.508	915.392
668.637	903.515
668.765	897.124
668.893	902.680
669.021	897.742
669.149	890.340
669.277	890.495
669.405	892.021
669.533	896.082
669.662	893.753
669.790	890.814
669.918	893.402
670.046	886.990
670.174	896.227
670.302	887.639
670.430	880.876
670.558	890.701
670.687	885.701
670.815	881.165
670.943	888.588
671.071	880.887
671.199	874.753
671.327	873.866
671.455	877.732
671.583	871.897
671.712	863.876
671.840	865.299
671.968	860.773
672.096	869.206
672.224	870.041
672.352	866.082
672.480	870.732
672.608	859.392
672.737	863.113
672.865	859.639
672.993	855.464
673.121	856.247
673.249	853.732
673.377	856.794
673.505	856.722
673.633	848.082
673.762	838.361
673.890	846.608
674.018	844.464
674.146	841.402
674.274	847.381
674.402	842.794
674.530	845.144
674.658	840.340
674.787	830.887
674.915	836.010
675.043	834.979
675.171	832.598
675.299	839.680
675.427	830.062
675.555	826.608
675.683	836.196
675.812	828.124
675.940	815.278
676.068	828.526
676.196	813.536
676.324	817.876
676.452	818.237
676.580	814.495
676.708	810.155
676.837	819.536
676.965	804.897
677.093	818.845
677.221	819.000
677.349	797.773
677.477	807.619
677.605	796.371
677.733	801.773
677.862	800.144
677.990	800.515
678.118	796.990
678.246	796.969
678.374	789.990
678.502	795.433
678.630	791.887
678.758	791.289
678.887	791.959
679.015	794.969
679.143	780.856
679.271	786.897
679.399	785.320
679.527	784.546
679.655	778.258
679.783	786.619
679.912	779.361
680.040	779.866
680.168	781.577
680.296	772.845
680.424	784.381
680.552	772.278
680.680	773.546
680.808	775.330
680.937	776.454
681.065	774.887
681.193	771.732
681.321	768.680
681.449	761.639
681.577	772.412
681.705	770.289
681.833	762.619
681.962	773.216
682.090	766.753
682.218	764.175
682.346	759.041
682.474	765.784
682.602	758.794
682.730	761.969
682.858	761.412
682.987	764.381
683.115	759.845
683.243	753.804
683.371	760.546
683.499	749.454
683.627	757.577
683.755	752.907
683.883	759.010
684.012	755.423
684.140	756.278
684.268	752.866
684.396	753.505
684.524	756.289
684.652	762.598
684.780	754.010
684.908	750.289
685.037	750.629
685.165	752.969
685.293	748.320
685.421	752.897
685.549	752.361
685.677	752.237
685.805	752.258
685.933	755.515
686.062	742.680
686.190	748.258
686.318	754.990
686.446	749.031
686.574	741.144
686.702	751.928
686.830	754.351
686.958	754.691
687.087	748.670
687.215	741.742
687.343	746.959
687.471	744.464
687.599	745.474
687.727	746.392
687.855	744.732
687.983	738.763
688.112	749.361
688.240	741.351
688.368	748.784
688.496	744.711
688.624	745.753
688.752	733.649
688.880	737.680
689.008	735.598
689.137	741.268
689.265	734.402
689.393	734.371
689.521	736.876
689.649	739.711
689.777	728.423
689.905	736.196
690.033	730.515
690.162	726.588
690.290	729.392
690.418	729.134
690.546	729.784
690.674	723.680
690.802	721.701
690.930	727.784
691.058	716.567
691.187	717.515
691.315	726.052
691.443	721.938
691.571	712.701
691.699	709.536
691.827	713.918
691.955	706.443
692.083	708.948
692.212	708.588
692.340	709.134
692.468	708.402
692.596	707.928
692.724	702.423
692.852	699.742
692.980	696.887
693.108	699.093
693.237	704.423
693.365	703.649
693.493	693.258
693.621	694.990
693.749	693.845
693.877	684.330
694.005	687.103
694.133	691.216
694.262	690.897
694.390	692.649
694.518	675.845
694.646	680.258
694.774	691.773
694.902	676.031
695.030	685.258
695.158	679.546
695.287	682.773
695.415	679.794
695.543	674.784
695.671	671.732
695.799	672.670
695.927	672.412
696.055	672.753
696.183	677.227
696.312	669.938
696.440	667.021
696.568	671.072
696.696	659.392
696.824	665.031
696.952	661.845
697.080	664.577
697.208	668.144
697.337	665.588
697.465	666.031
697.593	659.144
697.721	655.773
697.849	660.701
697.977	656.907
698.105	658.753
698.233	657.258
698.362	653.443
698.490	657.082
698.618	652.876
698.746	649.412
698.874	653.330
699.002	653.113
699.130	648.711
699.258	648.186
699.387	647.773
699.515	641.784
699.643	642.216
699.771	648.340
699.899	647.948
700.027	644.546
700.155	644.948
700.283	641.979
700.412	631.990
700.540	638.588
700.668	627.299
700.796	634.402
700.924	630.660
701.052	626.495
701.180	628.268
701.308	633.412
701.437	624.619
701.565	622.670
701.693	621.124
701.821	625.330
701.949	615.670
702.077	616.825
702.205	628.742
702.333	622.649
702.462	620.443
702.590	615.660
702.718	624.392
702.846	612.464
702.974	608.402
703.102	610.691
703.230	613.629
703.358	600.268
703.487	598.495
703.615	606.588
703.743	593.216
703.871	598.412
703.999	589.186
704.127	600.732
704.255	593.670
704.383	595.938
704.512	589.660
704.640	586.990
704.768	592.237
704.896	588.031
705.024	585.526
705.152	594.629
705.280	587.794
705.408	580.464
705.537	577.732
705.665	584.216
705.793	577.814
705.921	584.093
706.049	576.134
706.177	570.474
706.305	582.165
706.433	572.289
706.562	570.938
706.690	569.711
706.818	567.948
706.946	565.309
707.074	567.557
707.202	563.722
707.330	562.835
707.458	565.186
707.587	566.897
707.715	561.722
707.843	560.454
707.971	557.876
708.099	562.897
708.227	557.742
708.355	549.619
708.483	555.928
708.612	552.165
708.740	557.402
708.868	555.814
708.996	547.031
709.124	555.443
709.252	552.711
709.380	550.062
709.508	542.536
709.637	548.546
709.765	542.186
709.893	544.691
710.021	541.938
710.149	543.577
710.277	538.165
710.405	548.371
710.533	537.948
710.662	533.216
710.790	542.691
710.918	536.165
711.046	538.959
711.174	539.433
711.302	534.515
711.430	537.433
711.558	538.691
711.687	534.031
711.815	531.237
711.943	536.588
712.071	536.897
712.199	525.227
712.327	529.784
712.455	532.701
712.583	530.423
712.712	530.134
712.840	526.794
712.968	527.907
713.096	535.887
713.224	530.887
713.352	529.938
713.480	530.990
713.608	522.598
713.737	526.433
713.865	527.526
713.993	522.330
714.121	526.722
714.249	520.918
714.377	521.742
714.505	517.660
714.633	520.021
714.762	511.794
714.890	521.474
715.018	519.309
715.146	518.814
715.274	513.969
715.402	514.588
715.530	519.433
715.658	512.835
715.787	519.660
715.915	513.175
716.043	513.165
716.171	518.660
716.299	516.856
716.427	517.732
716.555	520.340
716.683	509.340
716.812	507.918
716.940	515.979
717.068	512.412
717.196	509.186
717.324	504.577
717.452	509.577
717.580	504.742
717.708	509.897
717.837	501.619
717.965	509.866
718.093	508.134
718.221	504.660
718.349	505.742
718.477	509.381
718.605	498.804
718.733	500.577
718.862	498.402
718.990	500.557
719.118	498.928
719.246	494.753
719.374	496.247
719.502	503.289
719.630	501.381
719.758	501.247
719.887	502.577
720.015	494.412
720.143	485.464
720.271	497.186
720.399	496.134
720.527	496.268
720.655	488.000
720.783	484.649
720.912	490.567
721.040	485.711
721.168	485.062
721.296	486.856
721.424	488.928
721.552	486.577
721.680	480.320
721.808	482.794
721.937	485.495
722.065	479.649
722.193	477.577
722.321	479.402
722.449	472.948
722.577	480.103
722.705	472.948
722.833	468.443
722.962	475.351
723.090	467.134
723.218	468.608
723.346	466.381
723.474	473.237
723.602	468.588
723.730	460.526
723.858	463.639
723.987	463.969
724.115	455.794
724.243	464.392
724.371	458.629
724.499	466.258
724.627	459.794
724.755	462.268
724.883	467.670
725.012	457.526
725.140	452.351
725.268	461.247
725.396	454.423
725.524	453.206
725.652	450.856
725.780	452.278
725.908	449.722
726.037	448.289
726.165	449.052
726.293	444.351
726.421	449.928
726.549	444.278
726.677	445.082
726.805	443.660
726.933	449.186
727.062	438.052
727.190	442.443
727.318	441.928
727.446	443.969
727.574	442.732
727.702	436.670
727.830	439.515
727.958	437.670
728.087	439.969
728.215	436.979
728.343	438.392
728.471	441.134
728.599	437.320
728.727	439.340
728.855	434.649
728.983	430.649
729.112	427.711
729.240	429.361
729.368	425.000
729.496	433.701
729.624	426.062
729.752	430.134
729.880	423.887
730.008	426.897
730.137	426.113
730.265	425.485
730.393	423.144
730.521	423.072
730.649	425.598
730.777	419.495
730.905	417.134
731.033	418.082
731.162	420.577
731.290	420.742
731.418	421.052
731.546	417.103
731.674	418.557
731.802	420.814
731.930	416.433
732.058	414.887
732.187	418.567
732.315	412.309
732.443	419.000
732.571	419.464
732.699	418.742
732.827	416.546
732.955	417.134
733.083	417.289
733.212	416.103
733.340	413.608
733.468	415.784
733.596	412.691
733.724	406.670
733.852	415.814
733.980	409.124
734.108	412.990
734.237	411.309
734.365	408.598
734.493	409.031
734.621	412.268
734.749	413.175
734.877	410.010
735.005	408.515
735.133	410.629
735.262	413.804
735.390	411.773
735.518	407.381
735.646	408.299
735.774	407.577
735.902	409.082
736.030	406.732
736.158	411.567
736.287	410.918
736.415	406.629
736.543	405.649
736.671	404.835
736.799	406.113
736.927	404.485
737.055	405.103
737.183	403.454
737.312	408.062
737.440	399.845
737.568	407.309
737.696	406.876
737.824	405.536
737.952	405.660
738.080	399.485
738.208	400.608
738.337	398.948
738.465	403.227
738.593	394.763
738.721	398.505
738.849	402.144
738.977	395.175
739.105	403.474
739.233	391.124
739.362	397.340
739.490	391.536
739.618	396.206
739.746	393.423
739.874	395.649
740.002	396.072
740.130	390.680
740.258	397.660
740.387	399.979
740.515	396.268
740.643	394.711
740.771	391.340
740.899	390.144
741.027	389.928
741.155	387.247
741.283	388.784
741.412	389.093
741.540	395.629
741.668	389.515
741.796	392.856
741.924	389.876
742.052	387.309
742.180	388.619
742.308	384.000
742.437	387.093
742.565	383.763
742.693	387.124
742.821	385.330
742.949	384.660
743.077	382.711
743.205	383.845
743.333	381.268
743.462	380.423
743.590	378.000
743.718	373.691
743.846	374.969
743.974	374.474
744.102	375.763
744.230	376.979
744.358	378.258
744.487	377.876
744.615	371.412
744.743	373.443
744.871	371.639
744.999	366.825
745.127	370.351
745.255	368.619
745.383	370.804
745.512	375.412
745.640	366.753
745.768	369.876
745.896	366.773
746.024	369.186
746.152	362.515
746.280	369.876
746.408	364.959
746.537	364.742
746.665	368.918
746.793	360.825
746.921	367.474
747.049	362.845
747.177	360.990
747.305	360.320
747.433	358.062
747.562	362.938
747.690	360.897
747.818	357.969
747.946	358.763
748.074	353.464
748.202	352.866
748.330	354.134
748.458	357.144
748.587	355.289
748.715	346.608
748.843	353.701
748.971	351.443
749.099	348.309
749.227	352.031
749.355	345.990
749.483	350.567
749.612	352.103
749.740	344.515
749.868	346.268
749.996	344.010
750.124	347.588
750.252	344.000
750.380	346.010
750.508	341.454
750.637	346.072
750.765	345.072
750.893	347.082
751.021	343.134
751.149	347.216
751.277	342.309
751.405	336.680
751.533	338.948
751.662	339.938
751.790	339.938
751.918	343.588
752.046	335.649
752.174	338.186
752.302	333.763
752.430	335.103
752.558	336.351
752.687	335.062
752.815	335.959
752.943	334.639
753.071	335.773
753.199	333.072
753.327	335.443
753.455	325.402
753.583	329.186
753.712	329.165
753.840	327.227
753.968	332.186
754.096	323.567
754.224	323.371
754.352	324.742
754.480	325.907
754.608	322.887
754.737	324.845
754.865	327.505
754.993	321.845
755.121	321.330
755.249	321.546
755.377	315.670
755.505	321.825
755.633	320.845
755.762	316.485
755.890	317.680
756.018	314.567
756.146	314.742
756.274	313.423
756.402	316.165
756.530	310.412
756.658	308.639
756.787	307.577
756.915	310.155
757.043	309.134
757.171	311.691
757.299	310.495
757.427	306.330
757.555	307.402
757.683	304.031
757.812	306.928
757.940	305.536
758.068	307.320
758.196	303.856
758.324	301.340
758.452	302.082
758.580	296.567
758.708	301.247
758.837	297.732
758.965	296.680
759.093	291.835
759.221	297.835
759.349	296.722
759.477	295.959
759.605	289.784
759.733	291.361
759.862	289.247
759.990	287.526
760.118	285.206
760.246	287.454
760.374	287.732
760.502	284.268
760.630	283.835
760.758	280.237
760.887	280.711
761.015	278.371
761.143	279.598
761.271	279.639
761.399	281.670
761.527	276.041
761.655	273.155
761.783	273.897
761.912	274.082
762.040	267.722
762.168	268.124
762.296	272.660
762.424	275.691
762.552	267.835
762.680	268.299
762.808	263.959
762.937	269.371
763.065	264.093
763.193	263.784
763.321	258.639
763.449	263.258
763.577	257.103
763.705	263.381
763.833	261.175
763.962	255.804
764.090	258.794
764.218	252.000
764.346	255.825
764.474	256.247
764.602	255.010
764.730	255.351
764.858	253.237
764.987	254.979
765.115	246.454
765.243	255.402
765.371	252.278
765.499	247.464
765.627	251.660
765.755	248.237
765.883	245.371
766.012	247.722
766.140	244.196
766.268	247.990
766.396	244.206
766.524	248.309
766.652	247.093
766.780	240.433
766.908	240.443
767.037	243.753
767.165	245.351
767.293	243.412
767.421	245.732
767.549	236.423
767.677	243.474
767.805	237.289
767.933	241.577
768.062	239.361
768.190	240.227
768.318	240.588
768.446	236.412
768.574	239.093
768.702	241.247
768.830	237.454
768.958	235.268
769.087	237.021
769.215	238.485
769.343	237.268
769.471	239.598
769.599	234.216
769.727	238.371
769.855	236.629
769.983	236.103
770.112	237.351
770.240	234.794
770.368	235.381
770.496	234.495
770.624	235.928
770.752	238.402
770.880	233.155
771.008	232.299
771.137	228.753
771.265	232.454
771.393	228.361
771.521	231.227
771.649	234.546
771.777	233.237
771.905	230.247
772.033	234.670
772.162	233.557
772.290	231.031
772.418	234.268
772.546	229.722
772.674	230.309
772.802	226.247
772.930	228.907
773.058	224.330
773.187	226.588
773.315	228.680
773.443	229.649
773.571	229.639
773.699	220.412
773.827	223.289
773.955	230.495
774.083	230.680
774.212	224.670
774.340	224.546
774.468	222.433
774.596	220.876
774.724	223.876
774.852	223.938
774.980	222.299
775.108	221.495
775.237	225.742
775.365	219.959
775.493	222.856
775.621	218.247
775.749	221.887
775.877	225.330
776.005	220.515
776.133	220.485
776.262	222.948
776.390	218.784
776.518	216.423
776.646	219.619
776.774	215.948
776.902	221.381
777.030	215.876
777.158	218.856
777.287	214.938
777.415	220.268
777.543	218.536
777.671	213.309
777.799	218.330
777.927	220.711
778.055	218.649
778.183	215.443
778.312	213.206
778.440	213.814
778.568	214.093
778.696	211.474
778.824	214.124
778.952	210.619
779.080	206.649
779.208	208.072
779.337	210.670
779.465	210.928
779.593	208.165
779.721	211.289
779.849	208.825
779.977	212.598
780.105	207.113
780.233	207.392
780.362	209.175
780.490	208.928
780.618	204.887
780.746	203.835
780.874	204.289
781.002	201.588
781.130	202.165
781.258	203.268
781.387	201.278
781.515	202.474
781.643	201.093
781.771	201.371
781.899	203.196
782.027	204.495
782.155	200.237
782.283	200.371
782.412	196.763
782.540	198.680
782.668	198.856
782.796	196.392
782.924	197.505
783.052	194.753
783.180	197.052
783.308	195.990
783.437	197.814
783.565	197.577
783.693	199.629
783.821	193.330
783.949	199.392
784.077	192.608
784.205	193.938
784.333	197.000
784.462	196.546
784.590	198.835
784.718	195.320
784.846	193.340
784.974	190.186
785.102	192.536
785.230	190.567
785.358	190.454
785.487	190.052
785.615	188.196
785.743	188.660
785.871	189.103
785.999	193.412
786.127	187.825
786.255	189.825
786.383	188.711
786.512	190.258
786.640	184.629
786.768	187.598
786.896	187.340
787.024	187.948
787.152	183.402
787.280	184.804
787.408	186.887
787.537	186.598
787.665	186.052
787.793	183.835
787.921	182.969
788.049	183.474
788.177	183.649
788.305	181.845
788.433	183.237
788.562	181.835
788.690	179.845
788.818	179.433
788.946	180.485
789.074	178.155
789.202	179.351
789.330	180.701
789.458	181.381
789.587	177.948
789.715	177.103
789.843	178.773
789.971	179.340
790.099	176.866
790.227	173.804
790.355	177.330
790.483	177.948
790.612	173.649
790.740	175.351
790.868	178.608
790.996	178.340
791.124	175.990
791.252	174.670
791.380	174.412
791.508	173.876
791.637	174.082
791.765	173.021
791.893	169.103
792.021	170.990
792.149	170.887
792.277	172.557
792.405	174.258
792.533	172.423
792.662	167.814
792.790	174.103
792.918	172.309
793.046	169.175
793.174	166.691
793.302	167.907
793.430	167.649
793.558	169.186
793.687	167.474
793.815	168.464
793.943	166.711
794.071	165.371
794.199	164.464
794.327	162.608
794.455	165.330
794.583	163.041
794.712	165.330
794.840	162.526
794.968	162.835
795.096	162.000
795.224	164.474
795.352	160.402
795.480	160.165
795.608	162.649
795.737	163.072
795.865	160.031
795.993	159.794
796.121	161.062
796.249	160.371
796.377	159.969
796.505	158.144
796.633	161.680
796.762	158.835
796.890	162.660
797.018	157.814
797.146	156.753
797.274	155.649
797.402	154.237
797.530	155.351
797.658	156.412
797.787	154.588
797.915	157.247
798.043	153.918
798.171	154.959
798.299	154.691
798.427	153.732
798.555	151.351
798.683	149.381
798.812	152.567
798.940	153.237
799.068	153.959
799.196	151.464
799.324	149.155
799.452	152.814
799.580	149.773
799.708	148.340
799.837	149.505
799.965	149.216
800.093	149.526
800.221	152.010
800.349	149.010
800.477	147.887
800.605	147.474
800.733	148.031
800.862	150.351
800.990	150.526
801.118	146.309
801.246	144.794
801.374	144.278
801.502	147.402
801.630	145.443
801.758	148.361
801.887	142.711
802.015	144.918
802.143	145.588
802.271	148.588
802.399	146.485
802.527	142.753
802.655	144.124
802.783	142.392
802.912	141.361
803.040	144.464
803.168	141.732
803.296	142.959
803.424	141.948
803.552	140.454
803.680	139.351
803.808	141.423
803.937	139.876
804.065	140.062
804.193	139.247
804.321	138.619
804.449	138.206
804.577	137.577
804.705	140.227
804.833	140.052
804.962	138.031
805.090	137.619
805.218	140.392
805.346	138.052
805.474	136.495
805.602	142.753
805.730	136.649
805.858	135.021
805.987	137.897
806.115	137.866
806.243	135.680
806.371	135.247
806.499	136.887
806.627	133.186
806.755	136.557
806.883	134.402
807.012	133.093
807.140	134.773
807.268	132.443
807.396	135.670
807.524	133.928
807.652	133.649
807.780	135.113
807.908	132.773
808.037	131.062
808.165	133.155
808.293	133.918
808.421	131.505
808.549	133.443
808.677	129.423
808.805	133.515
808.933	132.309
809.062	132.825
809.190	132.660
809.318	130.443
809.446	132.474
809.574	129.474
809.702	132.897
809.830	129.196
809.958	133.794
810.087	129.258
810.215	132.969
810.343	134.412
810.471	131.887
810.599	130.505
810.727	130.784
810.855	128.021
810.983	130.732
811.112	130.010
811.240	127.041
811.368	128.649
811.496	128.639
811.624	127.660
811.752	126.433
811.880	129.515
812.008	125.928
812.137	126.175
812.265	125.990
812.393	126.536
812.521	126.134
812.649	127.216
812.777	126.938
812.905	125.062
813.033	124.082
813.162	122.938
813.290	126.680
813.418	126.392
813.546	127.629
813.674	124.794
813.802	123.619
813.930	123.000
814.058	123.557
814.187	126.474
814.315	123.175
814.443	125.495
814.571	123.938
814.699	125.041
814.827	128.423
814.955	123.454
815.083	125.443
815.212	123.557
815.340	123.144
815.468	121.856
815.596	121.443
815.724	123.505
815.852	122.814
815.980	121.474
816.108	122.320
816.237	120.959
816.365	120.526
816.493	121.649
816.621	118.474
816.749	122.928
816.877	122.155
817.005	120.938
817.133	122.784
817.262	121.186
817.390	123.278
817.518	122.165
817.646	119.680
817.774	118.835
817.902	121.588
818.030	118.887
818.158	120.175
818.287	119.608
818.415	119.526
818.543	120.887
818.671	119.742
818.799	119.330
818.927	119.155
819.055	117.515
819.183	119.753
819.312	116.773
819.440	118.309
819.568	116.959
819.696	115.845
819.824	117.711
819.952	116.052
820.080	116.660
820.208	116.454
820.337	116.794
820.465	115.928
820.593	114.402
820.721	115.979
820.849	115.485
820.977	115.041
821.105	116.969
821.233	115.381
821.362	116.608
821.490	115.639
821.618	116.856
821.746	115.289
821.874	114.258
822.002	113.258
822.130	114.990
822.258	114.082
822.387	113.495
822.515	115.124
822.643	114.938
822.771	112.577
822.899	114.536
823.027	113.979
823.155	112.103
823.283	111.742
823.412	115.639
823.540	113.227
823.668	115.361
823.796	112.299
823.924	114.206
824.052	111.938
824.180	111.216
824.308	112.598
824.437	112.041
824.565	110.567
824.693	114.485
824.821	111.959
824.949	111.361
825.077	112.619
825.205	110.856
825.333	110.423
825.462	111.907
825.590	111.289
825.718	109.619
825.846	111.206
825.974	112.155
826.102	110.948
826.230	109.979
826.358	112.062
826.487	110.093
826.615	109.351
826.743	111.216
826.871	111.268
826.999	109.928
827.127	110.907
827.255	110.155
827.383	110.464
827.512	109.010
827.640	111.031
827.768	110.835
827.896	110.680
828.024	109.464
828.152	109.351
828.280	110.876
828.408	108.845
828.537	109.588
828.665	108.485
828.793	110.577
828.921	110.505
829.049	108.557
829.177	108.979
829.305	109.258
829.433	107.072
829.562	108.134
829.690	108.216
829.818	108.309
829.946	108.577
830.074	108.196
830.202	108.196
830.330	107.289
830.458	108.247
830.587	108.742
830.715	107.361
830.843	107.402
830.971	105.979
831.099	106.175
831.227	106.753
831.355	106.732
831.483	107.629
831.612	107.711
831.740	107.969
831.868	107.876
831.996	107.753
832.124	108.948
832.252	106.412
832.380	107.299
832.508	107.433
832.637	107.433
832.765	108.134
832.893	107.021
833.021	107.289
833.149	107.010
833.277	106.804
833.405	107.237
833.533	105.206
833.662	107.062
833.790	108.474
833.918	108.670
834.046	106.732
834.174	105.268
834.302	106.186
834.430	106.113
834.558	106.443
834.687	105.722
834.815	106.443
834.943	104.711
835.071	105.948
835.199	105.464
835.327	105.814
835.455	105.320
835.583	106.320
835.712	104.876
835.840	105.969
835.968	104.464
836.096	104.753
836.224	106.227
836.352	106.155
836.480	104.897
836.608	104.969
836.737	106.371
836.865	107.464
836.993	105.753
837.121	106.546
837.249	104.082
837.377	104.557
837.505	105.031
837.633	104.052
837.762	105.216
837.890	105.134
838.018	102.876
838.146	104.495
838.274	104.557
838.402	106.351
838.530	105.763
838.658	104.701
838.787	103.680
838.915	105.278
839.043	105.258
839.171	105.237
839.299	104.010
839.427	103.485
839.555	104.701
839.683	103.938
839.812	104.485
839.940	104.454
840.068	105.000
840.196	105.526
840.324	104.175
840.452	104.691
840.580	102.711
840.708	104.330
840.837	102.402
840.965	105.660
841.093	103.825
841.221	103.577
841.349	104.000
841.477	104.227
841.605	102.454
841.733	102.186
841.862	104.134
841.990	102.227
842.118	103.062
842.246	102.536
842.374	103.392
842.502	104.680
842.630	103.577
842.758	102.237
842.887	102.639
843.015	103.536
843.143	101.763
843.271	103.278
843.399	103.041
843.527	102.763
843.655	101.969
843.783	102.938
843.912	102.134
844.040	103.845
844.168	104.227
844.296	103.351
844.424	103.567
844.552	103.175
844.680	101.763
844.808	103.216
844.937	102.144
845.065	101.186
845.193	103.320
845.321	102.010
845.449	101.948
845.577	102.165
845.705	103.670
845.833	103.247
845.962	102.268
846.090	101.969
846.218	102.588
846.346	103.052
846.474	102.505
846.602	101.660
846.730	101.464
846.858	101.990
846.987	100.598
847.115	102.979
847.243	102.670
847.371	102.340
847.499	100.134
847.627	100.979
847.755	100.928
847.883	101.784
848.012	102.258
848.140	101.423
848.268	101.103
848.396	100.258
848.524	102.701
848.652	103.010
848.780	100.856
848.908	102.010
849.037	101.876
849.165	102.835
849.293	100.918
849.421	102.722
849.549	102.577
849.677	100.763
849.805	102.124
849.933	102.052
850.062	102.041
850.190	101.082
850.318	101.763
850.446	102.763
850.574	100.897
850.702	101.268
850.830	100.856
850.958	101.289
851.087	102.701
851.215	101.598
851.343	101.227
851.471	101.289
851.599	100.887
851.727	100.629
851.855	101.165
851.983	99.959
852.112	100.082
852.240	99.969
852.368	101.227
852.496	99.825
852.624	99.588
852.752	99.948
852.880	100.825
853.008	99.670
853.137	101.371
853.265	100.258
853.393	100.216
853.521	100.454
853.649	100.588
853.777	99.887
853.905	100.845
854.033	99.753
854.162	101.268
854.290	100.856
854.418	100.536
854.546	99.052
854.674	100.876
854.802	99.814
854.930	99.454
855.058	100.732
855.187	100.918
855.315	100.165
855.443	100.361
855.571	100.608
855.699	101.670
855.827	100.887
855.955	99.691
856.083	100.567
856.212	101.649
856.340	100.753
856.468	101.381
856.596	100.371
856.724	100.289
856.852	100.113
856.980	100.010
857.108	100.124
857.237	99.371
857.365	100.031
857.493	100.340
857.621	99.938
857.749	99.567
857.877	99.371
858.005	100.794
858.133	98.897
858.262	99.103
858.390	101.835
858.518	99.505
858.646	100.454
858.774	100.598
858.902	101.031
859.030	100.165
859.158	99.505
859.287	99.938
859.415	99.526
859.543	99.031
859.671	99.670
859.799	100.165
859.927	100.227
860.055	100.907
860.183	99.784
860.312	100.031
860.440	98.505
860.568	99.309
860.696	101.062
860.824	100.536
860.952	100.206
861.080	99.897
861.208	100.588
861.337	100.000
861.465	99.907
861.593	101.629
861.721	100.052
861.849	99.340
861.977	98.938
862.105	99.691
862.233	99.742
862.362	100.742
862.490	100.165
862.618	100.268
862.746	99.907
862.874	100.866
863.002	100.082
863.130	99.309
863.258	101.000
863.387	99.464
863.515	100.969
863.643	100.268
863.771	100.567
863.899	99.175
864.027	101.072
864.155	100.227
864.283	98.876
864.412	101.299
864.540	101.423
864.668	98.608
864.796	100.340
864.924	99.247
865.052	99.515
865.180	100.845
865.308	100.381
865.437	99.515
865.565	98.887
865.693	98.969
865.821	99.237
865.949	99.825
866.077	100.371
866.205	99.216
866.333	99.619
866.462	99.155
866.590	100.443
866.718	100.619
866.846	100.144
866.974	100.814
867.102	99.093
867.230	99.454
867.358	99.845
867.487	100.392
867.615	99.165
867.743	99.505
867.871	99.742
867.999	100.113
868.127	99.577
868.255	100.959
868.383	100.969
868.512	101.474
868.640	100.577
868.768	101.268
868.896	99.175
869.024	100.031
869.152	99.433
869.280	99.825
869.408	100.144
869.537	100.814
869.665	100.103
869.793	99.216
869.921	100.144
870.049	100.072
870.177	101.021
870.305	100.959
870.433	100.897
870.562	101.639
870.690	101.031
870.818	99.062
870.946	99.711
871.074	98.990
871.202	99.113
871.330	100.278
871.458	100.268
871.587	100.186
871.715	98.608
871.843	100.670
871.971	100.000
872.099	98.660
872.227	99.000
872.355	99.876
872.483	98.907
872.612	100.948
872.740	99.010
872.868	99.990
872.996	98.577
873.124	99.082
873.252	100.732
873.380	100.103
873.508	100.515
873.637	100.237
873.765	97.907
873.893	99.928
874.021	101.536
874.149	100.062
874.277	99.443
874.405	100.041
874.533	99.907
874.662	98.753
874.790	98.629
874.918	99.649
875.046	98.155
875.174	98.680
875.302	99.515
875.430	99.701
875.558	97.526
875.687	98.412
875.815	100.732
875.943	99.588
876.071	100.814
876.199	101.526
876.327	99.722
876.455	100.381
876.583	100.268
876.712	100.495
876.840	98.639
876.968	100.062
877.096	100.093
877.224	100.619
877.352	99.052
877.480	99.320
877.608	100.691
877.737	99.412
877.865	98.443
877.993	99.887
878.121	99.330
878.249	100.505
878.377	99.680
878.505	98.907
878.633	100.495
878.762	100.268
878.890	98.773
879.018	98.959
879.146	99.258
879.274	100.454
879.402	100.835
879.530	99.629
879.658	99.454
879.787	97.938
879.915	98.711
880.043	100.454
880.171	99.732
880.299	99.268
880.427	99.443
880.555	99.918
880.683	100.402
880.812	100.165
880.940	99.299
881.068	100.289
881.196	100.134
881.324	99.670
881.452	99.773
881.580	100.351
881.708	99.742
881.837	100.113
881.965	98.876
882.093	99.392
882.221	98.515
882.349	98.629
882.477	100.371
882.605	101.216
882.733	100.361
882.862	101.289
882.990	99.289
883.118	100.412
883.246	98.485
883.374	99.649
883.502	98.423
883.630	101.577
883.758	101.093
883.887	99.289
884.015	100.330
884.143	100.082
884.271	100.278
884.399	99.825
884.527	99.711
884.655	99.103
884.783	100.794
884.912	99.948
885.040	99.412
885.168	100.093
885.296	99.557
885.424	98.866
885.552	98.835
885.680	99.711
885.808	100.515
885.937	101.330
886.065	100.093
886.193	99.835
886.321	99.196
886.449	100.464
886.577	99.392
886.705	100.031
886.833	101.062
886.962	101.216
887.090	98.825
887.218	99.093
887.346	98.041
887.474	99.845
887.602	99.309
887.730	98.990
887.858	98.969
887.987	98.680
888.115	99.680
888.243	100.423
888.371	100.289
888.499	100.753
888.627	98.990
888.755	99.856
888.883	99.629
889.012	99.588
889.140	100.124
889.268	99.711
889.396	99.804
889.524	100.227
889.652	99.546
889.780	99.773
889.908	100.196
890.037	99.010
890.165	98.124
890.293	99.247
890.421	99.557
890.549	101.041
890.677	99.330
890.805	99.711
890.933	99.691
891.062	99.876
891.190	100.041
891.318	100.856
891.446	100.371
891.574	100.062
891.702	98.423
891.830	99.918
891.958	100.072
892.087	100.392
892.215	100.567
892.343	100.330
892.471	99.928
892.599	100.361
892.727	100.918
892.855	100.412
892.983	100.526
893.112	99.536
893.240	100.474
893.368	100.588
893.496	100.856
893.624	99.124
893.752	99.773
893.880	99.278
894.008	100.155
894.137	98.990
894.265	100.361
894.393	100.608
894.521	100.485
894.649	99.918
894.777	99.443
894.905	99.010
895.033	101.526
895.162	100.495
895.290	100.835
895.418	101.711
895.546	101.330
895.674	98.536
895.802	98.299
895.930	99.639
896.058	99.907
896.187	100.299
896.315	101.186
896.443	99.959
896.571	100.381
896.699	101.773
896.827	100.206
896.955	99.804
897.083	100.247
897.212	100.289
897.340	98.443
897.468	99.309
897.596	98.835
897.724	99.979
897.852	100.113
897.980	100.784
898.108	100.010
898.237	99.485
898.365	100.485
898.493	101.608
898.621	100.124
898.749	99.196
898.877	100.629
899.005	99.495
899.133	99.598
899.262	98.464
899.390	99.103
899.518	100.010
899.646	100.000
899.774	100.485
899.902	100.804
900.030	100.701
900.158	100.784
900.287	100.722
900.415	99.825
900.543	99.588
900.671	102.062
900.799	99.794
900.927	99.175
901.055	99.258
901.183	101.268
901.312	100.814
901.440	100.876
901.568	101.268
901.696	100.093
901.824	100.000
901.952	102.155
902.080	99.392
902.208	98.680
902.337	101.433
902.465	100.670
902.593	101.505
902.721	101.577
902.849	100.546
902.977	100.268
903.105	100.371
903.233	100.010
903.362	101.928
903.490	98.041
903.618	99.041
903.746	100.103
903.874	100.918
904.002	101.598
904.130	101.144
904.258	100.371
904.387	100.495
904.515	100.866
904.643	100.392
904.771	101.041
904.899	100.990
905.027	100.010
905.155	99.340
905.283	99.546
905.412	100.227
905.540	100.144
905.668	98.412
905.796	98.814
905.924	99.804
906.052	100.784
906.180	100.876
906.308	99.722
906.437	99.031
906.565	100.423
906.693	99.979
906.821	98.608
906.949	99.433
907.077	99.835
907.205	100.196
907.333	100.278
907.462	102.309
907.590	100.515
907.718	99.907
907.846	100.711
907.974	101.536
908.102	100.423
908.230	98.979
908.358	99.402
908.487	99.247
908.615	100.887
908.743	100.928
908.871	102.443
908.999	100.722
909.127	99.464
909.255	99.041
909.383	99.443
909.512	100.691
909.640	101.423
909.768	101.670
909.896	100.536
910.024	100.866
910.152	101.402
910.280	100.237
910.408	101.103
910.537	101.691
910.665	100.680
910.793	101.381
910.921	99.711
911.049	100.103
911.177	99.454
911.305	100.186
911.433	101.330
911.562	101.072
911.690	101.330
911.818	100.289
911.946	101.320
912.074	99.990
912.202	100.794
912.330	99.711
912.458	102.649
912.587	100.072
912.715	99.784
912.843	100.608
912.971	101.845
913.099	100.052
913.227	102.268
913.355	101.454
913.483	101.856
913.612	100.505
913.740	101.423
913.868	99.773
