sample14u_at_750.00nm_cut_at_1060.50Y_01.dat
19.06.2023
11:21:23
cut middle at Y: 1060.50
top cursor: 1109 down cursor: 1012 mean of: 97 lines , 2560 datapoints
wavelength(nm)	intensity[arb. units]
585.996	1884.031
586.124	1828.309
586.252	1811.670
586.380	1822.351
586.508	1820.845
586.637	1827.041
586.765	1834.763
586.893	1836.423
587.021	1831.722
587.149	1841.495
587.277	1842.619
587.405	1850.856
587.533	1844.515
587.662	1838.763
587.790	1859.856
587.918	1845.753
588.046	1858.598
588.174	1854.928
588.302	1861.155
588.430	1855.814
588.558	1857.773
588.687	1866.165
588.815	1875.165
588.943	1879.361
589.071	1861.732
589.199	1870.010
589.327	1866.784
589.455	1867.247
589.583	1878.918
589.712	1881.361
589.840	1892.742
589.968	1872.423
590.096	1886.804
590.224	1895.567
590.352	1884.072
590.480	1887.309
590.608	1888.588
590.737	1870.701
590.865	1882.608
590.993	1905.433
591.121	1892.340
591.249	1887.495
591.377	1886.309
591.505	1893.289
591.633	1884.979
591.762	1903.897
591.890	1903.289
592.018	1899.392
592.146	1902.629
592.274	1916.897
592.402	1901.876
592.530	1897.670
592.658	1896.753
592.787	1908.918
592.915	1923.052
593.043	1916.196
593.171	1909.000
593.299	1930.814
593.427	1908.948
593.555	1924.753
593.683	1926.608
593.812	1932.485
593.940	1954.897
594.068	1938.289
594.196	1959.021
594.324	1954.124
594.452	1970.660
594.580	1960.742
594.708	1969.216
594.837	1957.175
594.965	1973.093
595.093	1982.010
595.221	1973.763
595.349	1972.124
595.477	1981.113
595.605	1982.010
595.733	2023.134
595.862	2008.763
595.990	1996.381
596.118	2008.804
596.246	2009.113
596.374	2010.526
596.502	2031.928
596.630	2029.216
596.758	2018.113
596.887	2027.402
597.015	2037.784
597.143	2020.567
597.271	2019.454
597.399	2042.649
597.527	2036.392
597.655	2029.216
597.783	2041.948
597.912	2031.546
598.040	2059.649
598.168	2049.103
598.296	2029.227
598.424	2016.000
598.552	2030.247
598.680	2019.454
598.808	2021.856
598.937	2057.196
599.065	2049.402
599.193	2024.124
599.321	2011.701
599.449	2045.959
599.577	2031.175
599.705	2038.021
599.833	2033.371
599.962	2023.742
600.090	2046.918
600.218	2030.485
600.346	2032.175
600.474	2037.113
600.602	2042.144
600.730	2041.268
600.858	2048.608
600.987	2039.887
601.115	2026.031
601.243	2040.268
601.371	2052.887
601.499	2045.124
601.627	2050.175
601.755	2071.227
601.883	2068.990
602.012	2059.474
602.140	2071.289
602.268	2073.052
602.396	2092.979
602.524	2082.732
602.652	2091.845
602.780	2108.031
602.908	2109.680
603.037	2120.979
603.165	2111.732
603.293	2124.835
603.421	2132.897
603.549	2130.907
603.677	2151.155
603.805	2146.155
603.933	2163.845
604.062	2156.546
604.190	2172.196
604.318	2171.351
604.446	2179.928
604.574	2171.278
604.702	2199.639
604.830	2190.289
604.958	2210.567
605.087	2234.010
605.215	2220.062
605.343	2226.959
605.471	2245.124
605.599	2232.155
605.727	2241.763
605.855	2231.093
605.983	2246.124
606.112	2262.856
606.240	2272.093
606.368	2274.309
606.496	2267.165
606.624	2265.928
606.752	2259.299
606.880	2271.320
607.008	2291.412
607.137	2292.691
607.265	2262.402
607.393	2296.165
607.521	2273.237
607.649	2266.144
607.777	2277.763
607.905	2288.247
608.033	2286.237
608.162	2272.309
608.290	2295.670
608.418	2298.196
608.546	2280.794
608.674	2294.474
608.802	2276.289
608.930	2278.722
609.058	2285.052
609.187	2280.072
609.315	2293.608
609.443	2278.598
609.571	2296.330
609.699	2285.227
609.827	2283.433
609.955	2286.134
610.083	2277.680
610.212	2268.938
610.340	2292.546
610.468	2291.670
610.596	2300.155
610.724	2284.175
610.852	2288.588
610.980	2289.000
611.108	2289.299
611.237	2296.526
611.365	2292.010
611.493	2295.000
611.621	2291.082
611.749	2311.660
611.877	2319.711
612.005	2322.433
612.133	2293.835
612.262	2308.340
612.390	2324.577
612.518	2341.753
612.646	2333.237
612.774	2324.258
612.902	2344.072
613.030	2341.320
613.158	2340.546
613.287	2356.289
613.415	2350.866
613.543	2364.598
613.671	2360.041
613.799	2359.454
613.927	2374.804
614.055	2394.186
614.183	2416.278
614.312	2368.577
614.440	2410.082
614.568	2399.918
614.696	2406.567
614.824	2435.443
614.952	2431.268
615.080	2414.691
615.208	2420.742
615.337	2434.794
615.465	2445.196
615.593	2431.134
615.721	2448.918
615.849	2453.619
615.977	2454.371
616.105	2453.701
616.233	2447.237
616.362	2472.959
616.490	2457.784
616.618	2460.309
616.746	2482.371
616.874	2500.320
617.002	2488.175
617.130	2502.433
617.258	2518.371
617.387	2475.454
617.515	2479.196
617.643	2474.526
617.771	2503.814
617.899	2489.897
618.027	2470.165
618.155	2530.454
618.283	2472.979
618.412	2495.340
618.540	2535.134
618.668	2515.577
618.796	2495.041
618.924	2555.866
619.052	2496.907
619.180	2501.629
619.308	2525.918
619.437	2512.381
619.565	2515.113
619.693	2504.340
619.821	2529.763
619.949	2519.010
620.077	2536.433
620.205	2533.330
620.333	2555.464
620.462	2539.299
620.590	2565.237
620.718	2536.320
620.846	2563.526
620.974	2567.866
621.102	2549.711
621.230	2533.711
621.358	2565.629
621.487	2520.330
621.615	2546.557
621.743	2545.691
621.871	2545.175
621.999	2568.608
622.127	2550.691
622.255	2547.825
622.383	2567.763
622.512	2538.474
622.640	2612.165
622.768	2533.289
622.896	2554.392
623.024	2545.784
623.152	2609.608
623.280	2586.856
623.408	2543.443
623.537	2573.784
623.665	2557.392
623.793	2571.402
623.921	2553.423
624.049	2535.216
624.177	2559.660
624.305	2567.887
624.433	2575.289
624.562	2536.423
624.690	2568.732
624.818	2587.196
624.946	2643.062
625.074	2567.289
625.202	2549.000
625.330	2537.753
625.458	2589.691
625.587	2548.227
625.715	2590.206
625.843	2605.784
625.971	2551.773
626.099	2556.670
626.227	2569.546
626.355	2564.680
626.483	2617.082
626.612	2559.485
626.740	2565.649
626.868	2597.041
626.996	2552.567
627.124	2559.598
627.252	2543.948
627.380	2576.206
627.508	2567.237
627.637	2573.732
627.765	2591.021
627.893	2576.351
628.021	2561.732
628.149	2594.227
628.277	2599.722
628.405	2623.773
628.533	2564.186
628.662	2604.144
628.790	2585.124
628.918	2595.804
629.046	2592.320
629.174	2590.021
629.302	2665.835
629.430	2596.124
629.558	2609.309
629.687	2617.722
629.815	2617.928
629.943	2646.784
630.071	2642.515
630.199	2629.784
630.327	2642.588
630.455	2597.619
630.583	2666.103
630.712	2649.206
630.840	2634.340
630.968	2675.598
631.096	2645.144
631.224	2622.320
631.352	2644.000
631.480	2656.144
631.608	2640.072
631.737	2723.639
631.865	2790.134
631.993	2649.371
632.121	2715.990
632.249	2726.309
632.377	2702.381
632.505	2685.010
632.633	2638.928
632.762	2710.526
632.890	2737.670
633.018	2665.371
633.146	2658.216
633.274	2691.794
633.402	2656.144
633.530	2640.454
633.658	2749.825
633.787	2645.320
633.915	2712.969
634.043	2662.959
634.171	2663.175
634.299	2683.443
634.427	2731.227
634.555	2701.361
634.683	2684.216
634.812	2648.773
634.940	2672.907
635.068	2632.938
635.196	2671.124
635.324	2662.423
635.452	2694.979
635.580	2636.938
635.708	2633.237
635.837	2691.072
635.965	2661.134
636.093	2631.536
636.221	2627.278
636.349	2675.948
636.477	2602.175
636.605	2714.680
636.733	2619.021
636.862	2616.072
636.990	2634.485
637.118	2665.103
637.246	2637.763
637.374	2616.938
637.502	2594.495
637.630	2581.938
637.758	2600.990
637.887	2576.010
638.015	2596.278
638.143	2592.711
638.271	2595.237
638.399	2590.237
638.527	2574.814
638.655	2578.289
638.783	2661.216
638.912	2609.474
639.040	2575.639
639.168	2595.660
639.296	2581.732
639.424	2651.701
639.552	2554.979
639.680	2568.835
639.808	2596.526
639.937	2547.887
640.065	2570.485
640.193	2623.155
640.321	2565.072
640.449	2609.021
640.577	2598.845
640.705	2580.402
640.833	2597.371
640.962	2573.381
641.090	2556.247
641.218	2558.299
641.346	2558.186
641.474	2579.680
641.602	2563.464
641.730	2554.351
641.858	2563.546
641.987	2601.454
642.115	2562.423
642.243	2590.845
642.371	2583.526
642.499	2576.814
642.627	2577.392
642.755	2621.742
642.883	2640.010
643.012	2583.144
643.140	2580.598
643.268	2576.938
643.396	2586.258
643.524	2661.443
643.652	2576.928
643.780	2582.546
643.908	2583.990
644.037	2621.041
644.165	2572.887
644.293	2588.990
644.421	2570.412
644.549	2631.536
644.677	2593.722
644.805	2612.474
644.933	2590.247
645.062	2604.536
645.190	2620.835
645.318	2629.711
645.446	2606.113
645.574	2610.856
645.702	2598.155
645.830	2711.124
645.958	2609.979
646.087	2687.423
646.215	2596.072
646.343	2709.289
646.471	2627.959
646.599	2643.649
646.727	2599.814
646.855	2592.742
646.983	2634.278
647.112	2589.639
647.240	2695.979
647.368	2602.557
647.496	2626.423
647.624	2572.825
647.752	2586.629
647.880	2570.258
648.008	2599.711
648.137	2576.979
648.265	2563.722
648.393	2564.907
648.521	2592.619
648.649	2576.515
648.777	2567.021
648.905	2547.103
649.033	2558.392
649.162	2579.464
649.290	2529.515
649.418	2567.608
649.546	2571.660
649.674	2595.814
649.802	2551.052
649.930	2575.701
650.058	2532.309
650.187	2555.897
650.315	2540.423
650.443	2536.897
650.571	2531.196
650.699	2526.990
650.827	2529.062
650.955	2524.330
651.083	2521.392
651.212	2536.598
651.340	2562.381
651.468	2528.041
651.596	2507.711
651.724	2505.897
651.852	2511.794
651.980	2495.196
652.108	2532.464
652.237	2509.093
652.365	2511.485
652.493	2481.711
652.621	2496.856
652.749	2501.711
652.877	2475.691
653.005	2489.887
653.133	2482.258
653.262	2484.175
653.390	2472.258
653.518	2499.381
653.646	2478.299
653.774	2500.443
653.902	2488.505
654.030	2468.567
654.158	2469.392
654.287	2469.680
654.415	2449.423
654.543	2459.175
654.671	2466.907
654.799	2436.928
654.927	2440.186
655.055	2442.113
655.183	2438.000
655.312	2434.381
655.440	2445.990
655.568	2431.948
655.696	2429.670
655.824	2456.021
655.952	2425.680
656.080	2404.701
656.208	2460.938
656.337	2410.258
656.465	2446.309
656.593	2433.031
656.721	2404.536
656.849	2409.175
656.977	2412.134
657.105	2418.794
657.233	2390.134
657.362	2399.021
657.490	2399.825
657.618	2390.546
657.746	2382.134
657.874	2378.680
658.002	2388.031
658.130	2382.309
658.258	2381.887
658.387	2383.392
658.515	2355.732
658.643	2367.629
658.771	2368.237
658.899	2350.258
659.027	2358.258
659.155	2347.320
659.283	2362.464
659.412	2333.928
659.540	2345.052
659.668	2341.474
659.796	2317.536
659.924	2340.113
660.052	2332.515
660.180	2311.124
660.308	2332.464
660.437	2337.825
660.565	2302.660
660.693	2312.021
660.821	2309.670
660.949	2318.041
661.077	2300.546
661.205	2303.031
661.333	2300.474
661.462	2306.144
661.590	2302.588
661.718	2284.206
661.846	2286.196
661.974	2304.732
662.102	2291.031
662.230	2281.887
662.358	2281.144
662.487	2291.979
662.615	2283.588
662.743	2292.134
662.871	2270.753
662.999	2274.629
663.127	2266.134
663.255	2279.485
663.383	2291.289
663.512	2281.134
663.640	2282.175
663.768	2274.773
663.896	2266.175
664.024	2263.722
664.152	2263.144
664.280	2255.464
664.408	2245.753
664.537	2275.959
664.665	2245.897
664.793	2233.113
664.921	2230.361
665.049	2257.361
665.177	2256.866
665.305	2264.887
665.433	2255.093
665.562	2247.814
665.690	2238.124
665.818	2241.897
665.946	2249.340
666.074	2229.959
666.202	2247.711
666.330	2243.000
666.458	2245.443
666.587	2230.175
666.715	2248.134
666.843	2234.959
666.971	2240.412
667.099	2238.557
667.227	2246.876
667.355	2223.845
667.483	2234.526
667.612	2225.247
667.740	2231.969
667.868	2234.763
667.996	2214.227
668.124	2213.175
668.252	2224.732
668.380	2205.691
668.508	2224.938
668.637	2205.608
668.765	2207.897
668.893	2211.938
669.021	2206.216
669.149	2201.649
669.277	2194.113
669.405	2190.021
669.533	2200.876
669.662	2188.196
669.790	2186.742
669.918	2195.309
670.046	2183.000
670.174	2183.072
670.302	2178.113
670.430	2174.278
670.558	2164.567
670.687	2176.474
670.815	2159.495
670.943	2175.608
671.071	2147.309
671.199	2164.897
671.327	2148.763
671.455	2148.959
671.583	2141.577
671.712	2132.990
671.840	2128.041
671.968	2118.588
672.096	2121.505
672.224	2118.557
672.352	2108.464
672.480	2114.876
672.608	2106.567
672.737	2098.155
672.865	2092.515
672.993	2081.990
673.121	2084.825
673.249	2089.649
673.377	2070.433
673.505	2073.340
673.633	2070.041
673.762	2053.536
673.890	2059.103
674.018	2064.216
674.146	2051.680
674.274	2039.928
674.402	2034.979
674.530	2030.505
674.658	2025.691
674.787	2018.216
674.915	2023.804
675.043	2016.536
675.171	2006.206
675.299	2000.402
675.427	1982.804
675.555	1998.103
675.683	2002.010
675.812	1981.309
675.940	1965.082
676.068	1980.845
676.196	1979.536
676.324	1968.536
676.452	1960.784
676.580	1962.216
676.708	1954.206
676.837	1969.515
676.965	1944.722
677.093	1947.629
677.221	1943.093
677.349	1914.773
677.477	1921.701
677.605	1907.041
677.733	1917.010
677.862	1910.598
677.990	1902.918
678.118	1907.320
678.246	1895.649
678.374	1897.845
678.502	1893.536
678.630	1884.412
678.758	1890.536
678.887	1885.237
679.015	1898.722
679.143	1875.722
679.271	1872.258
679.399	1877.948
679.527	1855.907
679.655	1851.784
679.783	1869.247
679.912	1846.536
680.040	1846.186
680.168	1849.433
680.296	1833.072
680.424	1843.794
680.552	1829.062
680.680	1833.784
680.808	1823.567
680.937	1830.691
681.065	1813.928
681.193	1803.814
681.321	1830.629
681.449	1812.660
681.577	1801.268
681.705	1792.567
681.833	1813.670
681.962	1797.216
682.090	1804.010
682.218	1800.784
682.346	1793.711
682.474	1799.402
682.602	1808.876
682.730	1793.608
682.858	1791.742
682.987	1786.608
683.115	1770.031
683.243	1776.866
683.371	1784.052
683.499	1758.144
683.627	1773.536
683.755	1760.062
683.883	1771.052
684.012	1759.000
684.140	1753.588
684.268	1750.732
684.396	1757.495
684.524	1767.897
684.652	1765.474
684.780	1771.835
684.908	1763.619
685.037	1738.526
685.165	1762.598
685.293	1744.423
685.421	1746.814
685.549	1749.299
685.677	1762.392
685.805	1741.804
685.933	1745.072
686.062	1739.959
686.190	1734.835
686.318	1747.711
686.446	1733.979
686.574	1729.330
686.702	1739.134
686.830	1731.784
686.958	1724.433
687.087	1729.113
687.215	1710.330
687.343	1710.010
687.471	1724.340
687.599	1698.784
687.727	1715.546
687.855	1703.351
687.983	1707.289
688.112	1715.649
688.240	1698.464
688.368	1704.206
688.496	1705.340
688.624	1690.938
688.752	1701.619
688.880	1683.423
689.008	1671.371
689.137	1685.557
689.265	1684.979
689.393	1674.784
689.521	1673.959
689.649	1667.103
689.777	1665.423
689.905	1651.052
690.033	1650.856
690.162	1646.515
690.290	1632.866
690.418	1648.948
690.546	1645.021
690.674	1655.268
690.802	1631.536
690.930	1635.825
691.058	1623.093
691.187	1613.722
691.315	1635.649
691.443	1615.392
691.571	1628.742
691.699	1622.876
691.827	1624.309
691.955	1600.691
692.083	1592.433
692.212	1603.309
692.340	1600.155
692.468	1598.897
692.596	1589.567
692.724	1583.876
692.852	1583.660
692.980	1568.175
693.108	1564.330
693.237	1566.546
693.365	1555.660
693.493	1566.031
693.621	1551.433
693.749	1552.722
693.877	1541.361
694.005	1541.082
694.133	1547.402
694.262	1539.711
694.390	1534.742
694.518	1508.216
694.646	1523.948
694.774	1529.608
694.902	1510.711
695.030	1533.856
695.158	1506.557
695.287	1512.732
695.415	1499.742
695.543	1506.010
695.671	1500.186
695.799	1490.691
695.927	1490.072
696.055	1491.247
696.183	1495.835
696.312	1486.258
696.440	1478.876
696.568	1476.175
696.696	1467.371
696.824	1471.299
696.952	1468.763
697.080	1461.433
697.208	1466.454
697.337	1445.041
697.465	1451.309
697.593	1456.165
697.721	1451.856
697.849	1454.649
697.977	1447.175
698.105	1447.660
698.233	1457.268
698.362	1428.186
698.490	1434.536
698.618	1436.072
698.746	1422.412
698.874	1418.835
699.002	1427.887
699.130	1418.052
699.258	1421.165
699.387	1408.598
699.515	1398.309
699.643	1406.660
699.771	1400.010
699.899	1414.082
700.027	1393.237
700.155	1394.113
700.283	1408.794
700.412	1381.144
700.540	1387.196
700.668	1378.990
700.796	1372.227
700.924	1368.433
701.052	1370.928
701.180	1363.196
701.308	1361.371
701.437	1359.093
701.565	1355.247
701.693	1344.959
701.821	1347.814
701.949	1338.351
702.077	1327.330
702.205	1336.320
702.333	1331.567
702.462	1331.082
702.590	1314.268
702.718	1332.134
702.846	1316.485
702.974	1308.155
703.102	1309.474
703.230	1303.155
703.358	1292.876
703.487	1283.856
703.615	1281.536
703.743	1276.237
703.871	1276.093
703.999	1272.258
704.127	1267.557
704.255	1267.041
704.383	1271.773
704.512	1254.474
704.640	1249.856
704.768	1247.320
704.896	1250.000
705.024	1236.722
705.152	1238.485
705.280	1234.928
705.408	1225.990
705.537	1231.670
705.665	1220.897
705.793	1218.505
705.921	1209.454
706.049	1208.495
706.177	1213.144
706.305	1215.825
706.433	1197.340
706.562	1193.031
706.690	1185.278
706.818	1191.660
706.946	1186.526
707.074	1181.515
707.202	1176.732
707.330	1166.876
707.458	1171.103
707.587	1172.041
707.715	1171.155
707.843	1150.835
707.971	1158.175
708.099	1151.598
708.227	1144.495
708.355	1142.536
708.483	1150.433
708.612	1149.969
708.740	1144.763
708.868	1132.165
708.996	1132.402
709.124	1129.577
709.252	1126.608
709.380	1121.392
709.508	1104.938
709.637	1110.186
709.765	1104.608
709.893	1096.722
710.021	1112.093
710.149	1108.959
710.277	1106.000
710.405	1105.175
710.533	1099.619
710.662	1084.278
710.790	1100.979
710.918	1093.608
711.046	1101.825
711.174	1094.464
711.302	1087.196
711.430	1091.093
711.558	1087.948
711.687	1078.505
711.815	1089.454
711.943	1079.495
712.071	1079.010
712.199	1080.639
712.327	1063.093
712.455	1064.031
712.583	1073.113
712.712	1073.093
712.840	1061.804
712.968	1052.546
713.096	1060.732
713.224	1064.165
713.352	1059.454
713.480	1059.433
713.608	1055.237
713.737	1040.773
713.865	1047.371
713.993	1042.959
714.121	1036.536
714.249	1043.268
714.377	1042.660
714.505	1037.990
714.633	1031.454
714.762	1030.598
714.890	1033.835
715.018	1031.113
715.146	1025.691
715.274	1021.876
715.402	1022.485
715.530	1026.660
715.658	1016.918
715.787	1019.763
715.915	1019.948
716.043	1011.959
716.171	1017.010
716.299	1021.010
716.427	1020.773
716.555	1012.959
716.683	1003.124
716.812	1011.155
716.940	997.082
717.068	1000.794
717.196	1002.113
717.324	997.072
717.452	995.907
717.580	996.289
717.708	995.814
717.837	992.680
717.965	986.443
718.093	988.835
718.221	976.000
718.349	972.722
718.477	982.660
718.605	970.763
718.733	970.196
718.862	969.433
718.990	961.866
719.118	963.763
719.246	956.670
719.374	957.773
719.502	972.031
719.630	955.948
719.758	961.474
719.887	957.670
720.015	958.990
720.143	948.134
720.271	942.577
720.399	951.546
720.527	940.134
720.655	949.794
720.783	935.433
720.912	938.227
721.040	936.093
721.168	929.320
721.296	927.835
721.424	924.103
721.552	929.722
721.680	915.691
721.808	921.649
721.937	923.072
722.065	919.062
722.193	907.598
722.321	911.412
722.449	907.546
722.577	904.814
722.705	895.577
722.833	901.351
722.962	903.804
723.090	897.660
723.218	893.495
723.346	885.969
723.474	891.753
723.602	884.371
723.730	877.505
723.858	876.144
723.987	880.258
724.115	870.629
724.243	873.608
724.371	872.062
724.499	874.134
724.627	863.711
724.755	860.938
724.883	864.381
725.012	858.649
725.140	858.979
725.268	858.639
725.396	848.464
725.524	847.299
725.652	844.381
725.780	844.577
725.908	840.371
726.037	845.753
726.165	844.567
726.293	824.711
726.421	831.351
726.549	830.907
726.677	832.887
726.805	827.247
726.933	826.825
727.062	823.010
727.190	820.495
727.318	820.629
727.446	825.454
727.574	817.041
727.702	806.062
727.830	817.773
727.958	811.557
728.087	802.237
728.215	805.464
728.343	805.918
728.471	794.557
728.599	801.474
728.727	793.216
728.855	802.392
728.983	787.588
729.112	791.433
729.240	798.227
729.368	784.691
729.496	782.577
729.624	784.598
729.752	794.124
729.880	782.237
730.008	780.103
730.137	778.072
730.265	779.021
730.393	776.021
730.521	778.134
730.649	773.423
730.777	765.629
730.905	767.464
731.033	765.247
731.162	771.227
731.290	769.093
731.418	765.144
731.546	760.227
731.674	764.175
731.802	753.825
731.930	759.186
732.058	752.423
732.187	758.103
732.315	755.351
732.443	759.196
732.571	749.763
732.699	756.041
732.827	747.443
732.955	748.268
733.083	745.619
733.212	748.845
733.340	749.856
733.468	744.979
733.596	741.309
733.724	742.361
733.852	736.443
733.980	736.526
734.108	740.959
734.237	738.732
734.365	738.196
734.493	740.959
734.621	730.907
734.749	734.330
734.877	731.969
735.005	738.072
735.133	735.031
735.262	738.763
735.390	731.691
735.518	724.577
735.646	725.021
735.774	731.794
735.902	725.711
736.030	723.021
736.158	722.103
736.287	727.402
736.415	723.072
736.543	720.598
736.671	717.588
736.799	725.680
736.927	718.247
737.055	720.320
737.183	720.639
737.312	716.186
737.440	714.206
737.568	715.474
737.696	715.505
737.824	709.258
737.952	711.206
738.080	706.938
738.208	708.918
738.337	704.186
738.465	709.918
738.593	702.113
738.721	694.010
738.849	698.629
738.977	697.639
739.105	699.371
739.233	690.969
739.362	690.918
739.490	689.072
739.618	690.546
739.746	692.773
739.874	694.206
740.002	692.155
740.130	679.732
740.258	689.186
740.387	694.948
740.515	683.093
740.643	681.454
740.771	684.577
740.899	684.804
741.027	671.052
741.155	671.959
741.283	677.866
741.412	675.165
741.540	677.814
741.668	675.567
741.796	671.485
741.924	673.742
742.052	663.907
742.180	666.031
742.308	664.526
742.437	661.093
742.565	660.175
742.693	663.907
742.821	660.732
742.949	656.598
743.077	656.649
743.205	660.814
743.333	653.608
743.462	651.691
743.590	649.464
743.718	650.206
743.846	647.340
743.974	645.505
744.102	640.773
744.230	646.485
744.358	640.979
744.487	642.144
744.615	640.186
744.743	633.113
744.871	634.186
744.999	631.340
745.127	632.979
745.255	626.835
745.383	628.505
745.512	627.938
745.640	622.144
745.768	622.433
745.896	620.866
746.024	620.526
746.152	616.845
746.280	618.639
746.408	620.247
746.537	614.402
746.665	614.113
746.793	612.773
746.921	612.814
747.049	608.433
747.177	610.835
747.305	607.103
747.433	609.278
747.562	605.639
747.690	601.237
747.818	597.742
747.946	605.979
748.074	596.753
748.202	593.072
748.330	592.041
748.458	596.351
748.587	591.670
748.715	588.464
748.843	591.794
748.971	592.454
749.099	588.278
749.227	580.773
749.355	588.691
749.483	590.474
749.612	583.526
749.740	575.598
749.868	580.794
749.996	577.546
750.124	575.753
750.252	574.742
750.380	579.732
750.508	573.804
750.637	568.082
750.765	569.557
750.893	571.268
751.021	567.093
751.149	571.186
751.277	568.557
751.405	566.825
751.533	567.515
751.662	564.103
751.790	562.918
751.918	556.165
752.046	557.031
752.174	562.299
752.302	561.206
752.430	552.309
752.558	554.412
752.687	555.639
752.815	554.598
752.943	552.845
753.071	543.722
753.199	547.186
753.327	544.701
753.455	537.072
753.583	542.732
753.712	540.402
753.840	540.959
753.968	540.361
754.096	536.598
754.224	529.969
754.352	528.144
754.480	534.103
754.608	530.742
754.737	523.505
754.865	531.742
754.993	527.495
755.121	524.515
755.249	520.041
755.377	517.464
755.505	520.289
755.633	527.598
755.762	515.845
755.890	515.412
756.018	508.474
756.146	508.804
756.274	507.680
756.402	509.763
756.530	504.979
756.658	511.835
756.787	504.247
756.915	501.959
757.043	498.186
757.171	505.433
757.299	493.804
757.427	491.629
757.555	491.691
757.683	492.680
757.812	495.897
757.940	490.031
758.068	492.979
758.196	488.351
758.324	487.134
758.452	487.804
758.580	484.124
758.708	481.402
758.837	476.918
758.965	476.660
759.093	473.392
759.221	471.619
759.349	470.763
759.477	469.052
759.605	462.907
759.733	460.691
759.862	465.990
759.990	455.722
760.118	456.814
760.246	451.918
760.374	459.165
760.502	448.928
760.630	454.124
760.758	443.536
760.887	443.412
761.015	439.639
761.143	440.959
761.271	436.258
761.399	439.670
761.527	440.155
761.655	433.680
761.783	437.165
761.912	437.258
762.040	432.742
762.168	429.031
762.296	425.227
762.424	424.969
762.552	423.732
762.680	417.948
762.808	419.309
762.937	414.309
763.065	415.443
763.193	417.856
763.321	409.134
763.449	408.546
763.577	405.701
763.705	403.887
763.833	408.938
763.962	399.784
764.090	401.402
764.218	403.062
764.346	400.598
764.474	395.495
764.602	398.866
764.730	392.969
764.858	396.804
764.987	394.804
765.115	394.041
765.243	394.557
765.371	388.464
765.499	386.639
765.627	387.546
765.755	385.856
765.883	384.546
766.012	384.124
766.140	385.856
766.268	380.794
766.396	382.845
766.524	380.165
766.652	374.804
766.780	374.072
766.908	377.258
767.037	378.351
767.165	378.845
767.293	376.052
767.421	369.948
767.549	370.144
767.677	376.412
767.805	372.206
767.933	367.299
768.062	370.680
768.190	369.649
768.318	377.124
768.446	368.082
768.574	373.062
768.702	370.866
768.830	366.732
768.958	363.990
769.087	364.062
769.215	364.856
769.343	364.031
769.471	362.278
769.599	368.845
769.727	360.392
769.855	360.526
769.983	360.082
770.112	360.959
770.240	359.588
770.368	355.887
770.496	359.309
770.624	353.732
770.752	358.546
770.880	357.773
771.008	354.546
771.137	356.155
771.265	353.175
771.393	352.577
771.521	348.670
771.649	350.639
771.777	344.309
771.905	351.165
772.033	349.649
772.162	349.536
772.290	349.124
772.418	349.856
772.546	343.948
772.674	347.814
772.802	346.856
772.930	343.928
773.058	342.825
773.187	339.237
773.315	345.227
773.443	345.196
773.571	342.155
773.699	339.835
773.827	341.639
773.955	345.000
774.083	345.216
774.212	341.082
774.340	334.351
774.468	337.856
774.596	334.474
774.724	340.887
774.852	332.763
774.980	336.567
775.108	332.320
775.237	331.856
775.365	331.485
775.493	330.371
775.621	331.443
775.749	336.412
775.877	331.763
776.005	330.856
776.133	328.763
776.262	330.474
776.390	323.227
776.518	326.031
776.646	320.835
776.774	324.701
776.902	323.784
777.030	322.247
777.158	324.227
777.287	323.784
777.415	321.433
777.543	319.103
777.671	321.608
777.799	315.072
777.927	320.010
778.055	321.330
778.183	316.928
778.312	315.794
778.440	316.619
778.568	313.485
778.696	311.814
778.824	317.948
778.952	313.711
779.080	306.155
779.208	309.629
779.337	307.309
779.465	305.588
779.593	306.392
779.721	312.763
779.849	304.031
779.977	303.907
780.105	300.959
780.233	304.825
780.362	301.948
780.490	299.907
780.618	299.804
780.746	300.546
780.874	297.670
781.002	297.701
781.130	298.454
781.258	297.134
781.387	294.691
781.515	294.247
781.643	292.670
781.771	292.247
781.899	292.711
782.027	292.948
782.155	289.381
782.283	291.948
782.412	288.639
782.540	288.835
782.668	283.804
782.796	288.794
782.924	287.299
783.052	282.113
783.180	282.134
783.308	283.021
783.437	285.186
783.565	282.784
783.693	284.567
783.821	277.021
783.949	284.216
784.077	282.206
784.205	281.443
784.333	279.598
784.462	278.423
784.590	279.959
784.718	277.433
784.846	272.866
784.974	275.763
785.102	275.268
785.230	273.237
785.358	273.546
785.487	272.753
785.615	269.505
785.743	267.010
785.871	269.021
785.999	268.629
786.127	265.186
786.255	267.443
786.383	262.639
786.512	266.660
786.640	263.876
786.768	268.742
786.896	259.814
787.024	261.856
787.152	259.722
787.280	260.835
787.408	267.155
787.537	260.866
787.665	261.402
787.793	253.773
787.921	253.711
788.049	258.825
788.177	255.639
788.305	256.773
788.433	257.433
788.562	253.124
788.690	253.649
788.818	253.196
788.946	249.732
789.074	249.722
789.202	252.464
789.330	246.144
789.458	246.010
789.587	244.546
789.715	247.299
789.843	248.113
789.971	249.588
790.099	248.567
790.227	242.845
790.355	238.588
790.483	239.876
790.612	244.629
790.740	239.876
790.868	240.948
790.996	237.072
791.124	239.856
791.252	237.175
791.380	236.433
791.508	234.299
791.637	238.742
791.765	229.691
791.893	233.216
792.021	233.598
792.149	232.371
792.277	234.495
792.405	233.340
792.533	230.021
792.662	226.330
792.790	231.041
792.918	225.732
793.046	224.701
793.174	225.711
793.302	227.505
793.430	222.959
793.558	225.289
793.687	225.928
793.815	221.412
793.943	220.948
794.071	216.804
794.199	218.784
794.327	222.361
794.455	222.773
794.583	215.856
794.712	218.206
794.840	215.237
794.968	215.845
795.096	216.010
795.224	214.577
795.352	211.557
795.480	210.309
795.608	213.402
795.737	209.701
795.865	208.825
795.993	207.856
796.121	209.113
796.249	208.866
796.377	210.526
796.505	208.928
796.633	206.505
796.762	203.557
796.890	209.639
797.018	204.495
797.146	201.289
797.274	201.351
797.402	205.402
797.530	200.237
797.658	199.557
797.787	196.680
797.915	200.804
798.043	197.124
798.171	200.278
798.299	197.041
798.427	198.959
798.555	194.588
798.683	192.938
798.812	191.485
798.940	193.557
799.068	195.186
799.196	192.536
799.324	192.454
799.452	191.753
799.580	191.124
799.708	194.227
799.837	190.268
799.965	188.072
800.093	187.753
800.221	186.505
800.349	188.701
800.477	186.309
800.605	185.680
800.733	187.124
800.862	186.485
800.990	184.969
801.118	184.567
801.246	182.258
801.374	183.330
801.502	180.825
801.630	179.649
801.758	180.670
801.887	181.505
802.015	179.660
802.143	178.928
802.271	182.794
802.399	179.041
802.527	179.010
802.655	176.588
802.783	177.165
802.912	177.155
803.040	175.526
803.168	174.856
803.296	174.351
803.424	174.000
803.552	174.546
803.680	172.103
803.808	171.753
803.937	170.794
804.065	170.454
804.193	167.206
804.321	170.309
804.449	172.722
804.577	171.629
804.705	169.680
804.833	167.691
804.962	168.423
805.090	166.742
805.218	169.629
805.346	168.505
805.474	166.660
805.602	170.670
805.730	165.124
805.858	169.299
805.987	165.299
806.115	167.722
806.243	163.990
806.371	165.124
806.499	166.216
806.627	161.856
806.755	165.835
806.883	163.649
807.012	161.979
807.140	164.072
807.268	161.711
807.396	162.825
807.524	161.670
807.652	160.175
807.780	161.144
807.908	158.763
808.037	158.351
808.165	159.423
808.293	160.732
808.421	157.835
808.549	159.670
808.677	154.454
808.805	157.485
808.933	154.722
809.062	158.237
809.190	158.175
809.318	155.629
809.446	155.732
809.574	152.938
809.702	157.979
809.830	154.680
809.958	153.464
810.087	152.742
810.215	155.268
810.343	156.691
810.471	154.598
810.599	153.495
810.727	157.443
810.855	150.670
810.983	153.959
811.112	152.227
811.240	149.907
811.368	148.845
811.496	153.691
811.624	149.186
811.752	150.546
811.880	151.515
812.008	148.155
812.137	146.670
812.265	149.680
812.393	147.866
812.521	145.660
812.649	146.763
812.777	147.392
812.905	145.144
813.033	146.320
813.162	145.052
813.290	146.381
813.418	146.165
813.546	147.289
813.674	145.794
813.802	144.433
813.930	141.866
814.058	144.412
814.187	147.268
814.315	143.732
814.443	142.814
814.571	141.155
814.699	142.557
814.827	145.361
814.955	141.722
815.083	143.052
815.212	140.990
815.340	140.495
815.468	140.856
815.596	140.196
815.724	141.186
815.852	140.072
815.980	140.392
816.108	139.010
816.237	138.371
816.365	137.680
816.493	138.206
816.621	136.474
816.749	139.907
816.877	137.227
817.005	139.320
817.133	139.144
817.262	137.258
817.390	141.351
817.518	138.454
817.646	136.711
817.774	133.134
817.902	138.753
818.030	135.928
818.158	135.113
818.287	136.340
818.415	132.000
818.543	135.237
818.671	134.835
818.799	133.216
818.927	134.237
819.055	132.722
819.183	133.918
819.312	133.577
819.440	134.258
819.568	132.464
819.696	132.464
819.824	132.990
819.952	130.454
820.080	131.495
820.208	130.371
820.337	133.887
820.465	130.722
820.593	129.340
820.721	129.856
820.849	130.351
820.977	130.196
821.105	130.660
821.233	127.567
821.362	130.557
821.490	130.670
821.618	129.196
821.746	127.103
821.874	128.361
822.002	128.742
822.130	128.464
822.258	126.753
822.387	127.619
822.515	127.557
822.643	126.402
822.771	124.598
822.899	126.629
823.027	127.639
823.155	124.505
823.283	127.722
823.412	127.990
823.540	124.505
823.668	125.722
823.796	123.206
823.924	127.887
824.052	125.443
824.180	122.113
824.308	126.784
824.437	124.753
824.565	124.392
824.693	125.237
824.821	125.052
824.949	123.876
825.077	126.052
825.205	121.866
825.333	123.588
825.462	122.928
825.590	121.309
825.718	120.485
825.846	123.742
825.974	121.278
826.102	120.289
826.230	120.330
826.358	120.402
826.487	124.021
826.615	120.763
826.743	121.227
826.871	122.660
826.999	122.144
827.127	121.856
827.255	121.247
827.383	120.629
827.512	119.825
827.640	120.588
827.768	119.588
827.896	119.536
828.024	117.237
828.152	120.866
828.280	120.361
828.408	120.206
828.537	119.598
828.665	119.412
828.793	118.010
828.921	117.371
829.049	121.227
829.177	116.825
829.305	119.186
829.433	117.216
829.562	116.598
829.690	118.052
829.818	118.670
829.946	117.866
830.074	115.959
830.202	118.742
830.330	117.010
830.458	117.959
830.587	116.567
830.715	115.577
830.843	115.175
830.971	117.186
831.099	114.515
831.227	115.691
831.355	117.103
831.483	117.454
831.612	116.206
831.740	115.433
831.868	116.722
831.996	117.196
832.124	115.804
832.252	114.443
832.380	115.588
832.508	113.948
832.637	114.124
832.765	114.227
832.893	112.918
833.021	115.711
833.149	114.340
833.277	114.124
833.405	114.588
833.533	112.216
833.662	114.412
833.790	115.299
833.918	114.742
834.046	114.351
834.174	112.773
834.302	113.577
834.430	112.959
834.558	114.938
834.687	113.495
834.815	111.103
834.943	112.443
835.071	111.062
835.199	112.433
835.327	113.402
835.455	111.433
835.583	110.969
835.712	112.000
835.840	111.237
835.968	111.093
836.096	112.072
836.224	112.505
836.352	111.588
836.480	110.732
836.608	110.474
836.737	112.041
836.865	110.897
836.993	110.629
837.121	112.227
837.249	111.402
837.377	111.124
837.505	109.237
837.633	110.711
837.762	111.000
837.890	110.093
838.018	110.010
838.146	111.845
838.274	110.763
838.402	109.763
838.530	109.546
838.658	108.773
838.787	109.701
838.915	109.134
839.043	109.433
839.171	108.948
839.299	111.412
839.427	109.227
839.555	110.072
839.683	111.433
839.812	110.289
839.940	108.959
840.068	108.753
840.196	109.814
840.324	109.021
840.452	109.526
840.580	107.278
840.708	109.639
840.837	108.567
840.965	109.443
841.093	108.649
841.221	109.247
841.349	110.557
841.477	108.938
841.605	109.031
841.733	108.381
841.862	109.856
841.990	109.619
842.118	108.113
842.246	106.691
842.374	108.093
842.502	107.062
842.630	106.722
842.758	108.258
842.887	106.794
843.015	107.454
843.143	106.134
843.271	106.515
843.399	107.062
843.527	107.464
843.655	107.680
843.783	107.052
843.912	106.412
844.040	107.536
844.168	107.649
844.296	107.814
844.424	108.753
844.552	108.124
844.680	108.072
844.808	107.196
844.937	106.351
845.065	106.918
845.193	106.433
845.321	106.144
845.449	106.804
845.577	106.206
845.705	105.711
845.833	108.804
845.962	106.381
846.090	104.907
846.218	105.062
846.346	106.835
846.474	106.010
846.602	105.680
846.730	106.299
846.858	105.412
846.987	104.495
847.115	104.866
847.243	105.918
847.371	105.072
847.499	104.588
847.627	105.062
847.755	105.474
847.883	104.423
848.012	104.649
848.140	105.948
848.268	104.619
848.396	105.278
848.524	106.464
848.652	105.711
848.780	105.031
848.908	105.979
849.037	105.742
849.165	105.381
849.293	103.897
849.421	105.464
849.549	105.144
849.677	104.505
849.805	104.948
849.933	104.814
850.062	105.351
850.190	104.165
850.318	103.423
850.446	105.536
850.574	104.052
850.702	104.567
850.830	104.124
850.958	102.918
851.087	104.907
851.215	103.835
851.343	103.701
851.471	103.866
851.599	103.876
851.727	104.794
851.855	103.072
851.983	103.711
852.112	103.216
852.240	104.804
852.368	104.289
852.496	102.639
852.624	103.454
852.752	101.557
852.880	103.351
853.008	102.103
853.137	104.423
853.265	102.876
853.393	102.897
853.521	103.423
853.649	103.485
853.777	102.495
853.905	103.320
854.033	103.639
854.162	102.608
854.290	103.639
854.418	101.670
854.546	102.247
854.674	103.320
854.802	102.557
854.930	101.361
855.058	102.299
855.187	103.701
855.315	103.093
855.443	103.258
855.571	103.619
855.699	103.443
855.827	102.773
855.955	102.443
856.083	102.907
856.212	103.814
856.340	103.680
856.468	101.639
856.596	103.330
856.724	104.247
856.852	104.144
856.980	102.794
857.108	102.598
857.237	101.938
857.365	101.732
857.493	102.814
857.621	101.969
857.749	102.299
857.877	101.670
858.005	101.835
858.133	101.124
858.262	101.412
858.390	102.639
858.518	102.392
858.646	103.443
858.774	102.381
858.902	103.052
859.030	102.515
859.158	102.144
859.287	101.392
859.415	101.392
859.543	102.320
859.671	103.021
859.799	102.897
859.927	101.804
860.055	102.546
860.183	101.165
860.312	102.464
860.440	100.557
860.568	102.361
860.696	102.835
860.824	102.021
860.952	102.402
861.080	103.464
861.208	101.680
861.337	101.258
861.465	101.814
861.593	102.454
861.721	102.227
861.849	100.268
861.977	101.629
862.105	102.825
862.233	101.711
862.362	102.351
862.490	102.608
862.618	103.000
862.746	101.866
862.874	102.619
863.002	102.887
863.130	102.691
863.258	101.711
863.387	102.268
863.515	103.021
863.643	101.206
863.771	101.928
863.899	101.680
864.027	103.258
864.155	102.804
864.283	101.175
864.412	101.660
864.540	101.835
864.668	101.144
864.796	102.268
864.924	102.619
865.052	102.000
865.180	101.402
865.308	101.866
865.437	101.753
865.565	99.897
865.693	101.351
865.821	101.237
865.949	101.361
866.077	103.289
866.205	101.680
866.333	101.464
866.462	101.031
866.590	101.835
866.718	100.814
866.846	101.536
866.974	102.082
867.102	100.443
867.230	100.990
867.358	100.825
867.487	100.505
867.615	101.784
867.743	101.959
867.871	102.990
867.999	102.392
868.127	100.320
868.255	100.948
868.383	102.649
868.512	102.598
868.640	100.454
868.768	102.567
868.896	100.959
869.024	100.010
869.152	100.959
869.280	102.237
869.408	102.258
869.537	101.010
869.665	101.247
869.793	100.433
869.921	101.825
870.049	102.309
870.177	102.289
870.305	103.082
870.433	102.268
870.562	101.505
870.690	101.474
870.818	100.412
870.946	101.557
871.074	101.268
871.202	99.742
871.330	101.258
871.458	101.196
871.587	102.557
871.715	100.784
871.843	101.082
871.971	101.928
872.099	100.392
872.227	100.876
872.355	101.144
872.483	100.897
872.612	102.041
872.740	100.237
872.868	101.670
872.996	101.381
873.124	101.784
873.252	103.113
873.380	100.155
873.508	101.237
873.637	101.052
873.765	100.392
873.893	101.289
874.021	101.948
874.149	100.443
874.277	101.680
874.405	100.289
874.533	101.753
874.662	99.392
874.790	99.928
874.918	100.928
875.046	100.082
875.174	100.784
875.302	101.454
875.430	101.660
875.558	100.216
875.687	99.680
875.815	101.948
875.943	101.825
876.071	102.557
876.199	101.454
876.327	101.227
876.455	101.856
876.583	101.897
876.712	101.691
876.840	100.093
876.968	101.371
877.096	102.577
877.224	101.784
877.352	99.928
877.480	100.113
877.608	101.155
877.737	100.722
877.865	99.351
877.993	100.773
878.121	101.577
878.249	101.722
878.377	100.495
878.505	100.320
878.633	100.845
878.762	101.959
878.890	100.814
879.018	100.351
879.146	100.897
879.274	101.660
879.402	101.711
879.530	101.155
879.658	101.072
879.787	100.742
879.915	101.021
880.043	101.876
880.171	100.546
880.299	100.464
880.427	100.062
880.555	100.649
880.683	101.495
880.812	101.433
880.940	100.247
881.068	100.454
881.196	101.227
881.324	102.443
881.452	100.351
881.580	101.196
881.708	99.546
881.837	100.701
881.965	99.258
882.093	101.278
882.221	100.876
882.349	100.082
882.477	102.443
882.605	101.309
882.733	100.835
882.862	101.845
882.990	100.619
883.118	100.948
883.246	101.577
883.374	101.907
883.502	102.289
883.630	102.918
883.758	101.918
883.887	100.165
884.015	101.773
884.143	102.124
884.271	101.433
884.399	101.299
884.527	100.794
884.655	100.557
884.783	103.351
884.912	101.474
885.040	100.031
885.168	100.639
885.296	101.660
885.424	100.722
885.552	101.052
885.680	101.320
885.808	102.062
885.937	101.887
886.065	101.052
886.193	100.124
886.321	101.000
886.449	101.340
886.577	101.227
886.705	101.546
886.833	101.515
886.962	101.268
887.090	100.763
887.218	100.887
887.346	101.021
887.474	102.670
887.602	102.082
887.730	100.340
887.858	99.794
887.987	99.392
888.115	99.928
888.243	101.814
888.371	102.784
888.499	101.804
888.627	99.278
888.755	100.402
888.883	101.866
889.012	101.309
889.140	100.825
889.268	100.309
889.396	100.546
889.524	100.763
889.652	100.433
889.780	100.505
889.908	101.639
890.037	100.485
890.165	100.062
890.293	99.938
890.421	101.412
890.549	101.464
890.677	99.670
890.805	100.918
890.933	100.278
891.062	101.072
891.190	100.907
891.318	101.031
891.446	102.227
891.574	100.691
891.702	99.814
891.830	100.804
891.958	100.856
892.087	101.144
892.215	102.072
892.343	102.196
892.471	99.866
892.599	100.660
892.727	101.206
892.855	102.010
892.983	100.680
893.112	101.010
893.240	100.887
893.368	101.876
893.496	101.639
893.624	100.742
893.752	102.247
893.880	100.876
894.008	101.268
894.137	102.196
894.265	102.278
894.393	100.289
894.521	100.588
894.649	100.784
894.777	100.289
894.905	99.711
895.033	103.082
895.162	102.052
895.290	101.216
895.418	101.845
895.546	100.938
895.674	99.155
895.802	99.876
895.930	101.124
896.058	100.649
896.187	102.237
896.315	101.804
896.443	101.536
896.571	100.763
896.699	101.237
896.827	100.134
896.955	100.907
897.083	101.082
897.212	102.526
897.340	101.268
897.468	99.835
897.596	101.134
897.724	99.959
897.852	100.845
897.980	100.701
898.108	99.454
898.237	99.897
898.365	100.948
898.493	101.701
898.621	101.155
898.749	101.237
898.877	99.443
899.005	100.052
899.133	100.340
899.262	99.814
899.390	99.351
899.518	99.732
899.646	100.557
899.774	101.742
899.902	102.505
900.030	101.381
900.158	100.567
900.287	101.918
900.415	101.278
900.543	101.515
900.671	102.351
900.799	101.639
900.927	101.485
901.055	100.113
901.183	100.742
901.312	100.845
901.440	102.454
901.568	101.093
901.696	100.392
901.824	99.897
901.952	101.608
902.080	101.072
902.208	100.052
902.337	100.773
902.465	100.639
902.593	102.216
902.721	100.515
902.849	101.784
902.977	101.134
903.105	100.948
903.233	100.907
903.362	102.031
903.490	100.629
903.618	99.608
903.746	100.804
903.874	101.918
904.002	102.443
904.130	100.474
904.258	100.474
904.387	100.505
904.515	102.072
904.643	102.072
904.771	101.608
904.899	101.320
905.027	99.773
905.155	99.670
905.283	100.608
905.412	99.351
905.540	99.876
905.668	100.247
905.796	99.454
905.924	99.773
906.052	100.175
906.180	101.887
906.308	99.464
906.437	99.227
906.565	101.515
906.693	101.495
906.821	99.423
906.949	100.268
907.077	100.103
907.205	100.866
907.333	101.052
907.462	102.412
907.590	101.887
907.718	100.392
907.846	101.608
907.974	101.052
908.102	101.381
908.230	100.072
908.358	99.969
908.487	99.887
908.615	101.227
908.743	101.113
908.871	101.691
908.999	100.443
909.127	99.144
909.255	99.990
909.383	99.773
909.512	100.979
909.640	101.464
909.768	101.928
909.896	101.031
910.024	101.856
910.152	101.845
910.280	100.979
910.408	102.206
910.537	102.546
910.665	101.732
910.793	100.918
910.921	100.041
911.049	101.113
911.177	100.144
911.305	100.732
911.433	102.206
911.562	101.351
911.690	101.021
911.818	101.155
911.946	101.825
912.074	101.392
912.202	101.216
912.330	100.392
912.458	101.546
912.587	98.804
912.715	101.948
912.843	101.062
912.971	101.897
913.099	101.495
913.227	101.351
913.355	100.856
913.483	101.268
913.612	101.588
913.740	101.763
913.868	100.433
