sample4u_at_750.00nm_cut_at_1060.50Y_01.dat
19.06.2023
11:06:48
cut middle at Y: 1060.50
top cursor: 1109 down cursor: 1012 mean of: 97 lines , 2560 datapoints
wavelength(nm)	intensity[arb. units]
585.996	2075.474
586.124	2013.928
586.252	2004.928
586.380	2001.278
586.508	2008.134
586.637	1998.072
586.765	2004.536
586.893	2013.247
587.021	2030.876
587.149	2026.227
587.277	2026.392
587.405	2027.443
587.533	2018.660
587.662	2042.742
587.790	2040.907
587.918	2041.918
588.046	2035.897
588.174	2039.206
588.302	2050.680
588.430	2031.804
588.558	2048.216
588.687	2048.082
588.815	2069.835
588.943	2072.588
589.071	2060.474
589.199	2073.361
589.327	2061.082
589.455	2047.134
589.583	2070.000
589.712	2065.804
589.840	2075.155
589.968	2064.010
590.096	2080.433
590.224	2086.144
590.352	2078.825
590.480	2083.763
590.608	2079.103
590.737	2077.505
590.865	2079.856
590.993	2094.021
591.121	2089.515
591.249	2087.876
591.377	2085.784
591.505	2090.814
591.633	2084.371
591.762	2115.536
591.890	2112.588
592.018	2101.897
592.146	2099.052
592.274	2117.103
592.402	2107.722
592.530	2116.670
592.658	2112.887
592.787	2121.103
592.915	2125.000
593.043	2121.072
593.171	2117.887
593.299	2145.639
593.427	2136.794
593.555	2149.000
593.683	2129.237
593.812	2146.000
593.940	2161.928
594.068	2171.845
594.196	2167.495
594.324	2172.392
594.452	2195.866
594.580	2183.722
594.708	2188.845
594.837	2198.959
594.965	2199.680
595.093	2199.402
595.221	2198.423
595.349	2212.907
595.477	2223.309
595.605	2211.784
595.733	2245.784
595.862	2233.381
595.990	2230.608
596.118	2243.557
596.246	2259.670
596.374	2251.289
596.502	2264.598
596.630	2282.577
596.758	2263.608
596.887	2278.320
597.015	2289.536
597.143	2251.010
597.271	2275.206
597.399	2282.557
597.527	2298.392
597.655	2281.299
597.783	2283.216
597.912	2290.474
598.040	2278.485
598.168	2289.464
598.296	2286.237
598.424	2289.918
598.552	2296.464
598.680	2286.155
598.808	2291.474
598.937	2315.526
599.065	2290.412
599.193	2295.835
599.321	2280.773
599.449	2294.144
599.577	2290.711
599.705	2289.474
599.833	2293.485
599.962	2297.258
600.090	2297.495
600.218	2302.381
600.346	2314.247
600.474	2305.320
600.602	2304.536
600.730	2313.928
600.858	2318.639
600.987	2308.907
601.115	2314.278
601.243	2300.711
601.371	2331.186
601.499	2345.258
601.627	2331.392
601.755	2335.938
601.883	2349.196
602.012	2366.124
602.140	2343.649
602.268	2356.155
602.396	2372.515
602.524	2377.515
602.652	2397.608
602.780	2383.134
602.908	2398.216
603.037	2406.649
603.165	2422.072
603.293	2437.711
603.421	2428.021
603.549	2432.340
603.677	2464.216
603.805	2450.041
603.933	2469.237
604.062	2478.753
604.190	2493.041
604.318	2479.773
604.446	2512.763
604.574	2489.866
604.702	2511.722
604.830	2512.165
604.958	2527.825
605.087	2553.134
605.215	2547.351
605.343	2543.866
605.471	2556.691
605.599	2557.268
605.727	2558.670
605.855	2572.649
605.983	2577.062
606.112	2580.361
606.240	2602.247
606.368	2601.247
606.496	2672.629
606.624	2578.814
606.752	2625.845
606.880	2694.701
607.008	2755.268
607.137	2701.330
607.265	2612.206
607.393	2651.010
607.521	2707.845
607.649	2629.464
607.777	2645.155
607.905	2669.979
608.033	2678.082
608.162	2635.361
608.290	2693.227
608.418	2661.031
608.546	2677.454
608.674	2700.155
608.802	2664.691
608.930	2663.041
609.058	2663.093
609.187	2694.175
609.315	2695.072
609.443	2656.897
609.571	2733.216
609.699	2651.041
609.827	2696.402
609.955	2730.196
610.083	2653.629
610.212	2660.732
610.340	2675.639
610.468	2732.165
610.596	2712.866
610.724	2716.433
610.852	2699.557
610.980	2719.845
611.108	2737.289
611.237	2689.454
611.365	2703.237
611.493	2691.763
611.621	2703.907
611.749	2705.608
611.877	2724.072
612.005	2732.763
612.133	2750.557
612.262	2733.495
612.390	2757.773
612.518	2787.155
612.646	2842.691
612.774	2771.402
612.902	2782.227
613.030	2742.206
613.158	2847.608
613.287	2826.753
613.415	2782.825
613.543	2784.948
613.671	2813.340
613.799	2833.990
613.927	2853.897
614.055	2831.423
614.183	2920.629
614.312	2830.722
614.440	2970.691
614.568	2880.351
614.696	2862.680
614.824	2998.505
614.952	2918.835
615.080	2885.660
615.208	2927.433
615.337	2971.856
615.465	2940.670
615.593	2941.289
615.721	2975.052
615.849	2988.670
615.977	2952.990
616.105	3017.423
616.233	2955.351
616.362	3023.990
616.490	2959.938
616.618	2967.753
616.746	3067.629
616.874	3055.247
617.002	3020.227
617.130	3046.186
617.258	3105.856
617.387	3041.443
617.515	3004.258
617.643	3015.062
617.771	3089.361
617.899	3072.639
618.027	3046.247
618.155	3122.742
618.283	3042.155
618.412	3046.773
618.540	3159.567
618.668	3093.897
618.796	3087.979
618.924	3154.175
619.052	3105.000
619.180	3081.320
619.308	3100.155
619.437	3126.423
619.565	3119.598
619.693	3101.237
619.821	3135.608
619.949	3109.794
620.077	3164.835
620.205	3179.082
620.333	3173.845
620.462	3169.021
620.590	3210.649
620.718	3145.742
620.846	3217.938
620.974	3210.825
621.102	3218.443
621.230	3174.371
621.358	3307.443
621.487	3167.979
621.615	3216.608
621.743	3200.577
621.871	3233.402
621.999	3252.165
622.127	3216.464
622.255	3226.402
622.383	3220.186
622.512	3206.887
622.640	3318.711
622.768	3202.072
622.896	3269.691
623.024	3242.979
623.152	3297.515
623.280	3276.835
623.408	3226.598
623.537	3254.918
623.665	3219.464
623.793	3304.165
623.921	3251.505
624.049	3238.000
624.177	3259.412
624.305	3285.381
624.433	3282.598
624.562	3289.454
624.690	3342.835
624.818	3310.258
624.946	3418.959
625.074	3306.165
625.202	3264.856
625.330	3270.392
625.458	3370.722
625.587	3304.113
625.715	3361.753
625.843	3401.320
625.971	3320.464
626.099	3312.753
626.227	3330.948
626.355	3305.732
626.483	3428.155
626.612	3314.144
626.740	3325.722
626.868	3334.474
626.996	3344.392
627.124	3349.753
627.252	3305.701
627.380	3348.351
627.508	3351.938
627.637	3363.206
627.765	3383.031
627.893	3386.351
628.021	3388.351
628.149	3378.093
628.277	3417.464
628.405	3430.175
628.533	3388.711
628.662	3448.536
628.790	3435.392
628.918	3411.443
629.046	3474.732
629.174	3420.722
629.302	3510.443
629.430	3413.010
629.558	3475.505
629.687	3453.907
629.815	3471.691
629.943	3528.443
630.071	3494.351
630.199	3507.897
630.327	3518.402
630.455	3466.062
630.583	3550.351
630.712	3537.423
630.840	3534.876
630.968	3560.268
631.096	3510.784
631.224	3519.175
631.352	3582.330
631.480	3572.515
631.608	3602.237
631.737	3625.196
631.865	3736.495
631.993	3585.000
632.121	3699.784
632.249	3638.186
632.377	3643.340
632.505	3614.515
632.633	3580.670
632.762	3632.825
632.890	3689.021
633.018	3607.010
633.146	3631.887
633.274	3652.485
633.402	3661.320
633.530	3604.814
633.658	3718.897
633.787	3590.505
633.915	3688.000
634.043	3640.268
634.171	3650.866
634.299	3658.464
634.427	3689.454
634.555	3760.031
634.683	3648.918
634.812	3654.515
634.940	3657.928
635.068	3642.082
635.196	3650.845
635.324	3641.887
635.452	3706.021
635.580	3661.773
635.708	3636.526
635.837	3681.165
635.965	3656.784
636.093	3664.258
636.221	3630.309
636.349	3677.505
636.477	3609.588
636.605	3758.845
636.733	3620.505
636.862	3614.392
636.990	3669.588
637.118	3700.196
637.246	3657.948
637.374	3688.237
637.502	3631.289
637.630	3594.814
637.758	3634.000
637.887	3578.392
638.015	3658.361
638.143	3615.062
638.271	3626.072
638.399	3620.546
638.527	3600.495
638.655	3603.959
638.783	3721.082
638.912	3653.608
639.040	3637.113
639.168	3657.794
639.296	3606.258
639.424	3731.330
639.552	3602.536
639.680	3608.237
639.808	3660.041
639.937	3584.474
640.065	3595.010
640.193	3675.196
640.321	3618.072
640.449	3676.814
640.577	3685.227
640.705	3615.216
640.833	3742.918
640.962	3649.907
641.090	3605.443
641.218	3607.619
641.346	3662.402
641.474	3670.577
641.602	3644.309
641.730	3645.196
641.858	3632.887
641.987	3659.845
642.115	3702.918
642.243	3707.093
642.371	3711.887
642.499	3688.289
642.627	3697.567
642.755	3707.825
642.883	3737.701
643.012	3679.938
643.140	3668.505
643.268	3725.629
643.396	3705.887
643.524	3782.443
643.652	3723.887
643.780	3718.268
643.908	3695.464
644.037	3841.835
644.165	3751.722
644.293	3783.320
644.421	3689.845
644.549	3790.804
644.677	3752.278
644.805	3781.186
644.933	3722.959
645.062	3738.134
645.190	3783.361
645.318	3842.103
645.446	3758.134
645.574	3759.701
645.702	3772.443
645.830	3902.856
645.958	3739.412
646.087	3883.856
646.215	3749.474
646.343	3869.412
646.471	3847.990
646.599	3804.918
646.727	3769.969
646.855	3774.309
646.983	3799.299
647.112	3761.753
647.240	3874.381
647.368	3794.588
647.496	3787.423
647.624	3724.835
647.752	3730.526
647.880	3751.423
648.008	3737.732
648.137	3758.227
648.265	3722.680
648.393	3763.330
648.521	3733.969
648.649	3780.588
648.777	3759.887
648.905	3703.639
649.033	3751.897
649.162	3730.608
649.290	3691.835
649.418	3770.010
649.546	3796.835
649.674	3767.103
649.802	3715.206
649.930	3807.557
650.058	3640.845
650.187	3728.969
650.315	3683.371
650.443	3733.732
650.571	3697.515
650.699	3664.093
650.827	3644.402
650.955	3691.722
651.083	3704.381
651.212	3701.660
651.340	3736.856
651.468	3677.433
651.596	3689.289
651.724	3666.351
651.852	3659.515
651.980	3631.763
652.108	3708.155
652.237	3672.474
652.365	3715.206
652.493	3602.763
652.621	3632.021
652.749	3695.216
652.877	3593.948
653.005	3662.433
653.133	3617.381
653.262	3648.062
653.390	3587.454
653.518	3730.722
653.646	3604.237
653.774	3735.392
653.902	3649.536
654.030	3579.711
654.158	3592.866
654.287	3596.577
654.415	3620.866
654.543	3571.155
654.671	3611.010
654.799	3584.526
654.927	3554.918
655.055	3547.619
655.183	3582.278
655.312	3549.216
655.440	3565.732
655.568	3526.330
655.696	3630.887
655.824	3608.639
655.952	3536.804
656.080	3501.134
656.208	3635.722
656.337	3546.515
656.465	3590.062
656.593	3556.505
656.721	3554.206
656.849	3612.505
656.977	3498.948
657.105	3534.134
657.233	3488.835
657.362	3527.536
657.490	3495.979
657.618	3510.948
657.746	3492.619
657.874	3468.454
658.002	3437.619
658.130	3472.433
658.258	3462.237
658.387	3476.474
658.515	3437.093
658.643	3470.598
658.771	3466.021
658.899	3424.392
659.027	3435.691
659.155	3420.000
659.283	3563.608
659.412	3425.351
659.540	3496.433
659.668	3407.619
659.796	3457.392
659.924	3469.175
660.052	3440.299
660.180	3391.103
660.308	3409.629
660.437	3403.876
660.565	3383.062
660.693	3378.289
660.821	3428.299
660.949	3350.320
661.077	3371.722
661.205	3427.196
661.333	3336.557
661.462	3418.361
661.590	3409.278
661.718	3470.474
661.846	3412.412
661.974	3474.237
662.102	3375.082
662.230	3417.010
662.358	3355.649
662.487	3363.722
662.615	3336.072
662.743	3346.887
662.871	3332.804
662.999	3314.701
663.127	3315.258
663.255	3394.629
663.383	3428.474
663.512	3311.103
663.640	3341.577
663.768	3320.113
663.896	3320.804
664.024	3368.474
664.152	3302.031
664.280	3373.247
664.408	3298.670
664.537	3326.227
664.665	3263.948
664.793	3268.361
664.921	3270.227
665.049	3309.856
665.177	3280.216
665.305	3297.691
665.433	3297.340
665.562	3321.402
665.690	3315.361
665.818	3455.753
665.946	3272.918
666.074	3251.186
666.202	3276.454
666.330	3288.186
666.458	3282.938
666.587	3224.289
666.715	3259.165
666.843	3242.784
666.971	3226.979
667.099	3285.814
667.227	3270.124
667.355	3297.278
667.483	3237.598
667.612	3247.722
667.740	3275.866
667.868	3293.258
667.996	3224.979
668.124	3237.794
668.252	3275.175
668.380	3207.629
668.508	3241.072
668.637	3218.608
668.765	3211.928
668.893	3265.526
669.021	3166.804
669.149	3264.361
669.277	3235.412
669.405	3227.412
669.533	3194.691
669.662	3348.691
669.790	3194.206
669.918	3255.052
670.046	3219.825
670.174	3230.505
670.302	3210.216
670.430	3151.144
670.558	3225.804
670.687	3198.237
670.815	3237.711
670.943	3142.753
671.071	3146.443
671.199	3144.113
671.327	3106.804
671.455	3114.010
671.583	3112.340
671.712	3195.845
671.840	3116.763
671.968	3129.670
672.096	3139.711
672.224	3056.258
672.352	3176.175
672.480	3059.041
672.608	3061.876
672.737	3026.701
672.865	3149.485
672.993	3055.588
673.121	3005.649
673.249	2999.969
673.377	2988.443
673.505	2990.392
673.633	3001.412
673.762	2953.680
673.890	2958.227
674.018	3116.742
674.146	2967.093
674.274	2962.165
674.402	3092.474
674.530	2947.515
674.658	2936.814
674.787	2911.835
674.915	2954.278
675.043	2931.371
675.171	2944.371
675.299	2876.278
675.427	2899.619
675.555	2858.918
675.683	2859.619
675.812	2861.753
675.940	2863.866
676.068	2844.072
676.196	2846.144
676.324	2845.763
676.452	2830.588
676.580	2804.814
676.708	2829.804
676.837	2854.990
676.965	2855.825
677.093	2839.546
677.221	2794.649
677.349	2813.897
677.477	2851.845
677.605	2791.990
677.733	2816.825
677.862	2744.619
677.990	2745.546
678.118	2749.402
678.246	2747.804
678.374	2758.649
678.502	2722.186
678.630	2696.340
678.758	2694.320
678.887	2772.103
679.015	2695.381
679.143	2698.753
679.271	2683.969
679.399	2697.196
679.527	2706.515
679.655	2692.227
679.783	2691.278
679.912	2689.577
680.040	2706.474
680.168	2664.495
680.296	2680.773
680.424	2630.866
680.552	2663.660
680.680	2688.959
680.808	2624.794
680.937	2626.907
681.065	2632.711
681.193	2632.175
681.321	2617.598
681.449	2613.990
681.577	2629.165
681.705	2628.557
681.833	2603.278
681.962	2592.649
682.090	2689.938
682.218	2588.010
682.346	2592.825
682.474	2605.351
682.602	2593.412
682.730	2608.546
682.858	2569.464
682.987	2594.866
683.115	2566.804
683.243	2585.289
683.371	2562.340
683.499	2544.381
683.627	2587.887
683.755	2591.443
683.883	2609.515
684.012	2551.433
684.140	2539.794
684.268	2546.454
684.396	2561.536
684.524	2553.412
684.652	2583.691
684.780	2574.918
684.908	2565.557
685.037	2540.814
685.165	2528.897
685.293	2542.072
685.421	2566.660
685.549	2530.289
685.677	2525.979
685.805	2557.948
685.933	2539.155
686.062	2522.918
686.190	2517.598
686.318	2530.041
686.446	2501.402
686.574	2508.443
686.702	2547.753
686.830	2512.052
686.958	2497.485
687.087	2519.227
687.215	2504.732
687.343	2481.351
687.471	2499.381
687.599	2481.186
687.727	2506.052
687.855	2479.629
687.983	2494.258
688.112	2501.402
688.240	2458.474
688.368	2471.598
688.496	2465.371
688.624	2478.619
688.752	2448.165
688.880	2458.072
689.008	2443.155
689.137	2453.392
689.265	2440.701
689.393	2419.959
689.521	2422.979
689.649	2425.144
689.777	2411.381
689.905	2415.278
690.033	2418.608
690.162	2406.979
690.290	2389.959
690.418	2394.691
690.546	2404.598
690.674	2400.330
690.802	2382.887
690.930	2372.021
691.058	2369.052
691.187	2331.526
691.315	2370.186
691.443	2363.639
691.571	2361.557
691.699	2331.897
691.827	2340.062
691.955	2345.691
692.083	2323.907
692.212	2311.928
692.340	2302.433
692.468	2312.546
692.596	2290.526
692.724	2290.309
692.852	2274.577
692.980	2282.959
693.108	2267.784
693.237	2272.258
693.365	2255.000
693.493	2258.918
693.621	2244.237
693.749	2246.701
693.877	2233.289
694.005	2232.155
694.133	2239.381
694.262	2222.320
694.390	2218.887
694.518	2192.536
694.646	2200.485
694.774	2205.495
694.902	2186.515
695.030	2210.629
695.158	2183.969
695.287	2170.165
695.415	2167.423
695.543	2167.041
695.671	2162.856
695.799	2144.979
695.927	2144.309
696.055	2142.526
696.183	2164.237
696.312	2136.505
696.440	2114.227
696.568	2127.381
696.696	2114.897
696.824	2105.969
696.952	2104.722
697.080	2087.052
697.208	2107.866
697.337	2092.876
697.465	2083.845
697.593	2095.268
697.721	2077.247
697.849	2075.113
697.977	2082.753
698.105	2091.381
698.233	2070.021
698.362	2044.629
698.490	2062.041
698.618	2050.330
698.746	2038.701
698.874	2039.258
699.002	2035.412
699.130	2030.278
699.258	2025.546
699.387	2012.186
699.515	2002.856
699.643	2018.588
699.771	1996.876
699.899	1999.165
700.027	1978.876
700.155	2000.567
700.283	1993.000
700.412	1982.588
700.540	1974.691
700.668	1962.423
700.796	1970.031
700.924	1941.649
701.052	1940.887
701.180	1939.897
701.308	1943.021
701.437	1920.608
701.565	1918.948
701.693	1911.495
701.821	1916.402
701.949	1914.412
702.077	1897.784
702.205	1887.206
702.333	1884.485
702.462	1877.505
702.590	1878.381
702.718	1875.351
702.846	1851.876
702.974	1862.144
703.102	1861.021
703.230	1836.041
703.358	1838.742
703.487	1816.887
703.615	1805.928
703.743	1808.402
703.871	1796.268
703.999	1788.309
704.127	1792.629
704.255	1772.732
704.383	1775.031
704.512	1764.443
704.640	1757.959
704.768	1748.887
704.896	1743.588
705.024	1746.546
705.152	1732.701
705.280	1726.309
705.408	1734.948
705.537	1723.495
705.665	1714.897
705.793	1692.866
705.921	1701.969
706.049	1693.423
706.177	1699.629
706.305	1681.330
706.433	1684.113
706.562	1663.990
706.690	1672.598
706.818	1657.794
706.946	1643.371
707.074	1646.918
707.202	1631.000
707.330	1619.515
707.458	1618.443
707.587	1608.010
707.715	1616.299
707.843	1592.784
707.971	1603.320
708.099	1590.588
708.227	1575.598
708.355	1589.928
708.483	1580.804
708.612	1576.330
708.740	1568.598
708.868	1560.515
708.996	1561.021
709.124	1553.392
709.252	1542.990
709.380	1537.546
709.508	1522.876
709.637	1520.443
709.765	1526.155
709.893	1510.588
710.021	1512.113
710.149	1506.124
710.277	1508.536
710.405	1507.773
710.533	1490.000
710.662	1489.918
710.790	1492.680
710.918	1483.433
711.046	1489.969
711.174	1484.113
711.302	1479.371
711.430	1456.505
711.558	1471.021
711.687	1466.577
711.815	1463.649
711.943	1458.124
712.071	1454.247
712.199	1439.423
712.327	1442.649
712.455	1435.443
712.583	1433.412
712.712	1424.021
712.840	1419.021
712.968	1412.649
713.096	1417.175
713.224	1414.464
713.352	1406.835
713.480	1402.392
713.608	1394.247
713.737	1389.320
713.865	1380.381
713.993	1388.495
714.121	1382.093
714.249	1379.412
714.377	1382.887
714.505	1375.938
714.633	1362.660
714.762	1360.134
714.890	1365.959
715.018	1345.515
715.146	1347.732
715.274	1336.629
715.402	1345.887
715.530	1352.464
715.658	1324.165
715.787	1338.072
715.915	1325.010
716.043	1323.907
716.171	1317.505
716.299	1325.959
716.427	1310.165
716.555	1311.103
716.683	1303.639
716.812	1299.505
716.940	1293.876
717.068	1292.412
717.196	1289.000
717.324	1278.526
717.452	1275.392
717.580	1271.052
717.708	1275.546
717.837	1265.309
717.965	1271.577
718.093	1264.010
718.221	1237.763
718.349	1236.144
718.477	1249.320
718.605	1231.763
718.733	1229.000
718.862	1222.165
718.990	1223.412
719.118	1215.103
719.246	1220.031
719.374	1206.175
719.502	1219.567
719.630	1203.113
719.758	1208.412
719.887	1187.454
720.015	1189.938
720.143	1173.495
720.271	1185.557
720.399	1175.052
720.527	1173.938
720.655	1167.196
720.783	1157.536
720.912	1154.897
721.040	1146.794
721.168	1146.268
721.296	1143.278
721.424	1142.918
721.552	1134.526
721.680	1126.175
721.808	1123.969
721.937	1112.021
722.065	1114.041
722.193	1102.691
722.321	1104.639
722.449	1095.557
722.577	1092.443
722.705	1087.897
722.833	1080.062
722.962	1075.691
723.090	1070.557
723.218	1065.299
723.346	1060.742
723.474	1049.887
723.602	1048.464
723.730	1041.309
723.858	1045.392
723.987	1037.814
724.115	1024.371
724.243	1028.464
724.371	1020.103
724.499	1022.320
724.627	1019.309
724.755	1011.361
724.883	1014.433
725.012	997.371
725.140	996.938
725.268	992.969
725.396	981.619
725.524	977.474
725.652	975.474
725.780	970.938
725.908	964.546
726.037	961.000
726.165	954.794
726.293	949.093
726.421	946.134
726.549	941.412
726.677	938.124
726.805	927.876
726.933	926.216
727.062	927.216
727.190	919.660
727.318	924.577
727.446	918.082
727.574	918.309
727.702	907.567
727.830	906.845
727.958	893.505
728.087	894.928
728.215	889.381
728.343	885.505
728.471	888.660
728.599	885.897
728.727	877.856
728.855	870.113
728.983	869.144
729.112	867.608
729.240	864.825
729.368	863.237
729.496	849.835
729.624	849.381
729.752	855.010
729.880	837.567
730.008	843.701
730.137	835.845
730.265	828.175
730.393	829.186
730.521	820.072
730.649	818.588
730.777	814.299
730.905	808.010
731.033	816.464
731.162	808.928
731.290	798.082
731.418	802.990
731.546	790.784
731.674	784.175
731.802	785.495
731.930	790.144
732.058	779.577
732.187	773.206
732.315	774.031
732.443	772.763
732.571	771.722
732.699	766.897
732.827	756.691
732.955	756.928
733.083	756.536
733.212	755.948
733.340	754.794
733.468	748.093
733.596	744.732
733.724	742.639
733.852	742.278
733.980	732.948
734.108	740.000
734.237	747.289
734.365	727.866
734.493	732.155
734.621	722.041
734.749	722.216
734.877	718.763
735.005	717.247
735.133	712.845
735.262	716.979
735.390	708.629
735.518	704.062
735.646	707.629
735.774	705.381
735.902	695.351
736.030	698.526
736.158	687.784
736.287	687.216
736.415	689.000
736.543	691.907
736.671	681.258
736.799	674.309
736.927	673.639
737.055	674.196
737.183	670.165
737.312	667.794
737.440	663.845
737.568	670.206
737.696	657.361
737.824	656.876
737.952	650.103
738.080	644.093
738.208	646.454
738.337	641.876
738.465	641.711
738.593	636.454
738.721	620.093
738.849	629.598
738.977	633.392
739.105	629.113
739.233	624.619
739.362	622.309
739.490	618.340
739.618	617.711
739.746	614.979
739.874	612.990
740.002	608.495
740.130	602.835
740.258	608.206
740.387	605.258
740.515	599.608
740.643	595.196
740.771	596.567
740.899	578.804
741.027	586.691
741.155	580.577
741.283	583.588
741.412	576.052
741.540	577.258
741.668	573.742
741.796	568.866
741.924	566.680
742.052	573.052
742.180	563.639
742.308	559.639
742.437	556.093
742.565	557.660
742.693	552.134
742.821	553.371
742.949	551.649
743.077	543.742
743.205	543.299
743.333	537.608
743.462	537.732
743.590	528.041
743.718	532.907
743.846	525.000
743.974	529.000
744.102	522.052
744.230	523.175
744.358	515.557
744.487	520.041
744.615	504.175
744.743	506.753
744.871	505.412
744.999	505.443
745.127	500.361
745.255	496.557
745.383	490.979
745.512	493.907
745.640	492.093
745.768	480.474
745.896	485.072
746.024	484.918
746.152	476.753
746.280	480.485
746.408	469.845
746.537	473.144
746.665	480.186
746.793	473.062
746.921	472.660
747.049	468.340
747.177	456.835
747.305	454.124
747.433	454.701
747.562	453.918
747.690	452.134
747.818	451.402
747.946	450.979
748.074	449.186
748.202	449.144
748.330	443.918
748.458	439.784
748.587	435.381
748.715	436.588
748.843	432.165
748.971	436.031
749.099	435.144
749.227	431.742
749.355	425.423
749.483	428.392
749.612	418.629
749.740	424.454
749.868	417.876
749.996	416.464
750.124	421.412
750.252	419.763
750.380	414.464
750.508	408.299
750.637	405.289
750.765	402.969
750.893	402.464
751.021	403.835
751.149	404.619
751.277	396.876
751.405	400.835
751.533	391.485
751.662	400.258
751.790	391.000
751.918	391.206
752.046	389.608
752.174	388.031
752.302	384.753
752.430	383.371
752.558	375.515
752.687	378.567
752.815	378.010
752.943	374.361
753.071	371.907
753.199	368.278
753.327	369.093
753.455	365.990
753.583	360.320
753.712	361.072
753.840	365.093
753.968	354.680
754.096	354.227
754.224	357.010
754.352	349.856
754.480	350.876
754.608	350.010
754.737	345.928
754.865	348.577
754.993	341.711
755.121	343.505
755.249	340.320
755.377	334.969
755.505	342.763
755.633	339.093
755.762	334.794
755.890	335.856
756.018	327.165
756.146	326.124
756.274	326.608
756.402	327.000
756.530	330.041
756.658	321.938
756.787	318.268
756.915	314.670
757.043	313.134
757.171	314.515
757.299	315.515
757.427	315.598
757.555	307.711
757.683	315.536
757.812	310.196
757.940	304.959
758.068	307.423
758.196	308.979
758.324	306.433
758.452	301.464
758.580	292.990
758.708	300.299
758.837	296.969
758.965	298.010
759.093	293.412
759.221	293.495
759.349	292.093
759.477	289.691
759.605	287.392
759.733	282.443
759.862	287.381
759.990	280.134
760.118	279.918
760.246	277.784
760.374	278.546
760.502	277.866
760.630	269.948
760.758	273.711
760.887	268.155
761.015	267.897
761.143	271.691
761.271	265.443
761.399	263.175
761.527	265.773
761.655	260.186
761.783	259.237
761.912	264.196
762.040	255.948
762.168	254.124
762.296	251.289
762.424	254.247
762.552	249.701
762.680	248.876
762.808	249.639
762.937	248.258
763.065	244.289
763.193	242.897
763.321	239.928
763.449	241.876
763.577	239.711
763.705	238.186
763.833	241.845
763.962	231.948
764.090	236.928
764.218	233.546
764.346	231.742
764.474	233.918
764.602	229.763
764.730	229.711
764.858	232.701
764.987	232.000
765.115	225.278
765.243	231.856
765.371	223.474
765.499	220.979
765.627	230.010
765.755	221.969
765.883	220.381
766.012	222.196
766.140	216.804
766.268	220.918
766.396	217.454
766.524	219.340
766.652	215.969
766.780	212.928
766.908	215.907
767.037	211.918
767.165	213.093
767.293	210.536
767.421	210.103
767.549	205.567
767.677	206.546
767.805	207.608
767.933	208.680
768.062	208.340
768.190	204.052
768.318	206.938
768.446	210.495
768.574	200.454
768.702	204.557
768.830	202.392
768.958	203.918
769.087	204.454
769.215	205.021
769.343	200.505
769.471	197.753
769.599	201.979
769.727	200.072
769.855	194.124
769.983	196.825
770.112	196.351
770.240	197.144
770.368	198.000
770.496	198.361
770.624	196.588
770.752	199.485
770.880	191.557
771.008	192.742
771.137	193.381
771.265	192.247
771.393	192.062
771.521	191.660
771.649	189.567
771.777	189.412
771.905	188.392
772.033	191.546
772.162	187.505
772.290	185.948
772.418	188.526
772.546	185.845
772.674	190.082
772.802	185.577
772.930	184.216
773.058	188.299
773.187	183.598
773.315	184.639
773.443	181.897
773.571	183.959
773.699	180.402
773.827	180.175
773.955	180.557
774.083	181.969
774.212	181.371
774.340	177.515
774.468	181.000
774.596	179.588
774.724	180.021
774.852	178.536
774.980	177.794
775.108	177.835
775.237	174.021
775.365	173.247
775.493	178.309
775.621	175.773
775.749	175.412
775.877	177.794
776.005	175.402
776.133	176.773
776.262	172.990
776.390	171.722
776.518	168.814
776.646	172.515
776.774	171.732
776.902	170.887
777.030	170.495
777.158	166.887
777.287	169.804
777.415	170.918
777.543	167.464
777.671	168.639
777.799	169.804
777.927	168.474
778.055	165.969
778.183	167.082
778.312	166.186
778.440	167.072
778.568	163.165
778.696	162.577
778.824	166.371
778.952	166.206
779.080	161.485
779.208	162.948
779.337	159.557
779.465	163.175
779.593	161.474
779.721	162.825
779.849	162.423
779.977	158.619
780.105	161.629
780.233	158.959
780.362	154.649
780.490	160.608
780.618	160.196
780.746	155.794
780.874	157.866
781.002	157.979
781.130	159.567
781.258	152.814
781.387	155.928
781.515	154.711
781.643	153.567
781.771	154.567
781.899	153.670
782.027	154.711
782.155	153.175
782.283	153.299
782.412	152.680
782.540	151.258
782.668	151.784
782.796	154.196
782.924	150.433
783.052	148.485
783.180	151.485
783.308	150.052
783.437	150.639
783.565	150.144
783.693	149.742
783.821	150.691
783.949	149.454
784.077	146.825
784.205	148.670
784.333	149.443
784.462	148.423
784.590	151.052
784.718	146.144
784.846	145.165
784.974	145.443
785.102	148.680
785.230	148.072
785.358	145.680
785.487	144.144
785.615	142.948
785.743	142.381
785.871	141.247
785.999	145.062
786.127	141.784
786.255	144.082
786.383	142.423
786.512	142.670
786.640	141.969
786.768	142.619
786.896	139.557
787.024	141.072
787.152	138.567
787.280	139.969
787.408	142.536
787.537	141.536
787.665	142.526
787.793	138.918
787.921	140.278
788.049	139.845
788.177	139.990
788.305	138.763
788.433	138.340
788.562	138.093
788.690	139.381
788.818	136.278
788.946	139.186
789.074	135.309
789.202	137.443
789.330	134.959
789.458	136.959
789.587	136.144
789.715	134.546
789.843	135.505
789.971	137.773
790.099	134.680
790.227	131.948
790.355	135.433
790.483	137.649
790.612	135.186
790.740	133.814
790.868	135.639
790.996	135.835
791.124	134.629
791.252	133.845
791.380	134.351
791.508	131.619
791.637	134.165
791.765	131.938
791.893	128.856
792.021	133.701
792.149	129.175
792.277	130.814
792.405	135.206
792.533	130.598
792.662	128.392
792.790	132.763
792.918	131.206
793.046	128.412
793.174	127.918
793.302	132.041
793.430	131.969
793.558	130.309
793.687	125.825
793.815	129.753
793.943	126.093
794.071	127.753
794.199	125.773
794.327	127.433
794.455	128.515
794.583	127.072
794.712	130.732
794.840	124.113
794.968	126.784
795.096	125.598
795.224	126.866
795.352	125.361
795.480	123.742
795.608	126.216
795.737	127.485
795.865	125.371
795.993	126.742
796.121	125.309
796.249	125.124
796.377	125.474
796.505	123.732
796.633	126.134
796.762	124.825
796.890	126.784
797.018	124.866
797.146	122.969
797.274	123.753
797.402	122.649
797.530	120.691
797.658	123.526
797.787	122.464
797.915	125.062
798.043	122.629
798.171	123.227
798.299	120.402
798.427	122.351
798.555	120.608
798.683	121.330
798.812	122.268
798.940	120.155
799.068	121.814
799.196	121.474
799.324	120.031
799.452	122.216
799.580	120.454
799.708	120.918
799.837	120.856
799.965	120.351
800.093	120.938
800.221	120.124
800.349	120.361
800.477	120.402
800.605	118.258
800.733	119.010
800.862	118.454
800.990	118.948
801.118	117.371
801.246	116.103
801.374	118.320
801.502	118.825
801.630	116.588
801.758	116.433
801.887	117.639
802.015	116.216
802.143	116.247
802.271	118.990
802.399	115.814
802.527	114.959
802.655	114.722
802.783	114.505
802.912	116.165
803.040	116.165
803.168	113.784
803.296	114.485
803.424	115.062
803.552	114.381
803.680	114.464
803.808	112.082
803.937	114.670
804.065	113.505
804.193	113.351
804.321	114.340
804.449	113.722
804.577	114.639
804.705	113.485
804.833	111.794
804.962	113.186
805.090	111.216
805.218	114.454
805.346	115.258
805.474	114.082
805.602	114.763
805.730	112.485
805.858	113.330
805.987	112.175
806.115	113.031
806.243	112.505
806.371	112.567
806.499	112.608
806.627	111.773
806.755	113.763
806.883	112.577
807.012	111.454
807.140	111.155
807.268	110.052
807.396	110.887
807.524	112.237
807.652	112.010
807.780	111.907
807.908	110.979
808.037	110.155
808.165	110.165
808.293	112.052
808.421	111.629
808.549	112.144
808.677	109.381
808.805	109.856
808.933	110.165
809.062	110.969
809.190	110.887
809.318	110.784
809.446	109.876
809.574	108.660
809.702	110.093
809.830	109.619
809.958	110.423
810.087	111.505
810.215	110.979
810.343	111.794
810.471	110.216
810.599	109.062
810.727	110.041
810.855	108.649
810.983	109.546
811.112	110.330
811.240	108.845
811.368	109.124
811.496	109.526
811.624	110.320
811.752	109.216
811.880	109.577
812.008	109.907
812.137	109.155
812.265	109.206
812.393	107.835
812.521	109.505
812.649	109.031
812.777	108.660
812.905	106.072
813.033	108.041
813.162	107.196
813.290	109.701
813.418	107.897
813.546	107.959
813.674	109.557
813.802	107.309
813.930	107.361
814.058	108.258
814.187	108.928
814.315	107.505
814.443	108.361
814.571	106.536
814.699	107.165
814.827	108.351
814.955	108.546
815.083	107.938
815.212	107.742
815.340	108.402
815.468	106.206
815.596	106.474
815.724	107.299
815.852	107.753
815.980	108.144
816.108	107.082
816.237	106.784
816.365	107.351
816.493	105.814
816.621	107.371
816.749	108.196
816.877	107.113
817.005	106.649
817.133	105.711
817.262	106.660
817.390	107.320
817.518	107.052
817.646	106.196
817.774	106.732
817.902	106.990
818.030	105.412
818.158	106.577
818.287	106.897
818.415	105.546
818.543	106.660
818.671	106.485
818.799	105.082
818.927	104.907
819.055	104.928
819.183	106.629
819.312	105.526
819.440	105.402
819.568	106.515
819.696	106.062
819.824	105.485
819.952	104.082
820.080	103.969
820.208	103.990
820.337	106.309
820.465	104.567
820.593	103.794
820.721	105.887
820.849	105.237
820.977	104.433
821.105	105.938
821.233	105.309
821.362	105.237
821.490	104.649
821.618	104.031
821.746	103.031
821.874	104.361
822.002	104.474
822.130	106.031
822.258	104.536
822.387	103.794
822.515	103.979
822.643	104.196
822.771	102.515
822.899	103.711
823.027	104.546
823.155	103.804
823.283	104.196
823.412	106.113
823.540	104.258
823.668	103.485
823.796	103.443
823.924	104.433
824.052	102.897
824.180	102.794
824.308	104.124
824.437	103.948
824.565	102.402
824.693	103.144
824.821	103.928
824.949	103.515
825.077	103.443
825.205	102.536
825.333	102.196
825.462	103.722
825.590	102.546
825.718	102.722
825.846	103.742
825.974	104.124
826.102	103.443
826.230	102.505
826.358	102.216
826.487	103.247
826.615	98.794
826.743	101.701
826.871	103.515
826.999	103.155
827.127	103.588
827.255	101.423
827.383	102.041
827.512	102.041
827.640	102.320
827.768	103.000
827.896	102.299
828.024	102.381
828.152	102.464
828.280	103.402
828.408	104.082
828.537	103.495
828.665	103.773
828.793	103.351
828.921	102.237
829.049	101.866
829.177	102.041
829.305	103.505
829.433	101.722
829.562	101.309
829.690	102.619
829.818	101.680
829.946	101.134
830.074	101.443
830.202	103.412
830.330	101.845
830.458	102.567
830.587	102.247
830.715	100.866
830.843	101.258
830.971	101.237
831.099	100.835
831.227	100.515
831.355	101.742
831.483	103.381
831.612	101.876
831.740	102.392
831.868	102.072
831.996	102.124
832.124	102.629
832.252	102.278
832.380	101.897
832.508	101.186
832.637	101.876
832.765	101.948
832.893	102.340
833.021	102.165
833.149	101.474
833.277	103.485
833.405	102.505
833.533	102.021
833.662	101.186
833.790	101.557
833.918	101.649
834.046	102.155
834.174	102.340
834.302	101.660
834.430	100.485
834.558	101.619
834.687	102.598
834.815	101.835
834.943	101.649
835.071	101.495
835.199	101.000
835.327	101.918
835.455	100.670
835.583	101.948
835.712	102.278
835.840	101.495
835.968	100.103
836.096	100.567
836.224	102.309
836.352	102.175
836.480	102.948
836.608	100.691
836.737	102.196
836.865	100.784
836.993	100.598
837.121	101.773
837.249	102.196
837.377	102.196
837.505	100.052
837.633	101.845
837.762	100.155
837.890	99.742
838.018	100.299
838.146	100.691
838.274	101.412
838.402	101.443
838.530	101.082
838.658	101.072
838.787	100.629
838.915	101.495
839.043	100.351
839.171	101.588
839.299	100.907
839.427	100.773
839.555	101.856
839.683	103.237
839.812	101.144
839.940	101.309
840.068	100.340
840.196	100.794
840.324	100.876
840.452	101.062
840.580	100.278
840.708	102.000
840.837	100.588
840.965	100.588
841.093	102.299
841.221	101.423
841.349	101.577
841.477	100.608
841.605	99.165
841.733	99.660
841.862	102.371
841.990	100.856
842.118	100.402
842.246	100.340
842.374	99.412
842.502	100.577
842.630	101.052
842.758	100.557
842.887	101.320
843.015	101.619
843.143	100.062
843.271	100.732
843.399	101.041
843.527	100.381
843.655	99.649
843.783	100.557
843.912	101.454
844.040	102.361
844.168	102.619
844.296	102.763
844.424	101.237
844.552	101.144
844.680	99.412
844.808	100.608
844.937	100.082
845.065	100.526
845.193	101.340
845.321	100.381
845.449	102.423
845.577	101.454
845.705	100.876
845.833	101.567
845.962	101.330
846.090	99.577
846.218	99.918
846.346	101.536
846.474	99.773
846.602	100.474
846.730	101.660
846.858	99.371
846.987	98.711
847.115	101.041
847.243	101.309
847.371	101.258
847.499	99.289
847.627	100.928
847.755	100.619
847.883	99.907
848.012	99.485
848.140	99.505
848.268	100.093
848.396	100.021
848.524	101.206
848.652	101.794
848.780	100.165
848.908	101.000
849.037	99.660
849.165	100.546
849.293	99.103
849.421	100.268
849.549	99.990
849.677	100.052
849.805	100.155
849.933	101.351
850.062	100.392
850.190	99.371
850.318	99.227
850.446	100.897
850.574	99.990
850.702	100.814
850.830	99.835
850.958	100.082
851.087	101.412
851.215	100.753
851.343	100.175
851.471	98.979
851.599	100.794
851.727	100.082
851.855	100.536
851.983	99.701
852.112	100.165
852.240	99.526
852.368	101.155
852.496	100.196
852.624	99.536
852.752	98.670
852.880	99.361
853.008	98.990
853.137	100.526
853.265	100.670
853.393	99.845
853.521	99.660
853.649	99.546
853.777	100.299
853.905	99.938
854.033	98.804
854.162	100.701
854.290	99.773
854.418	99.474
854.546	99.021
854.674	100.186
854.802	99.320
854.930	99.165
855.058	100.000
855.187	100.526
855.315	99.567
855.443	100.381
855.571	99.536
855.699	100.021
855.827	99.216
855.955	98.536
856.083	100.567
856.212	99.619
856.340	102.299
856.468	100.062
856.596	100.866
856.724	100.196
856.852	100.515
856.980	99.412
857.108	100.897
857.237	100.742
857.365	99.588
857.493	101.216
857.621	100.773
857.749	98.918
857.877	98.763
858.005	100.742
858.133	99.443
858.262	100.093
858.390	100.588
858.518	99.639
858.646	100.515
858.774	99.825
858.902	99.959
859.030	99.505
859.158	99.010
859.287	99.227
859.415	100.546
859.543	98.546
859.671	99.619
859.799	99.711
859.927	100.546
860.055	99.732
860.183	100.186
860.312	99.134
860.440	99.175
860.568	99.763
860.696	99.639
860.824	99.928
860.952	99.660
861.080	99.990
861.208	100.959
861.337	99.639
861.465	98.804
861.593	100.041
861.721	100.021
861.849	97.845
861.977	99.041
862.105	99.598
862.233	99.907
862.362	100.887
862.490	99.979
862.618	100.546
862.746	99.515
862.874	101.031
863.002	100.907
863.130	99.701
863.258	100.742
863.387	100.979
863.515	100.402
863.643	100.515
863.771	100.124
863.899	99.825
864.027	100.608
864.155	99.969
864.283	99.608
864.412	101.515
864.540	101.216
864.668	98.773
864.796	100.454
864.924	100.845
865.052	100.918
865.180	101.000
865.308	99.639
865.437	100.309
865.565	98.794
865.693	98.443
865.821	99.670
865.949	99.990
866.077	101.062
866.205	98.299
866.333	100.351
866.462	98.660
866.590	100.082
866.718	99.959
866.846	101.371
866.974	101.381
867.102	98.907
867.230	99.258
867.358	100.113
867.487	99.577
867.615	98.639
867.743	100.144
867.871	100.887
867.999	100.557
868.127	100.144
868.255	100.938
868.383	100.557
868.512	100.536
868.640	100.021
868.768	101.031
868.896	99.722
869.024	100.000
869.152	99.835
869.280	100.227
869.408	101.227
869.537	100.526
869.665	100.010
869.793	100.144
869.921	99.742
870.049	101.134
870.177	100.258
870.305	101.113
870.433	101.907
870.562	100.000
870.690	99.742
870.818	100.598
870.946	101.577
871.074	100.505
871.202	98.938
871.330	101.216
871.458	100.990
871.587	100.505
871.715	98.918
871.843	101.588
871.971	100.784
872.099	98.546
872.227	100.474
872.355	99.577
872.483	99.948
872.612	101.000
872.740	98.670
872.868	99.474
872.996	98.814
873.124	100.485
873.252	101.629
873.380	99.918
873.508	100.897
873.637	100.247
873.765	100.608
873.893	100.062
874.021	100.402
874.149	101.021
874.277	100.577
874.405	101.103
874.533	101.052
874.662	99.237
874.790	98.918
874.918	100.268
875.046	98.711
875.174	99.711
875.302	99.763
875.430	100.113
875.558	99.577
875.687	99.928
875.815	101.299
875.943	100.732
876.071	100.464
876.199	101.134
876.327	101.052
876.455	99.608
876.583	99.691
876.712	100.000
876.840	99.268
876.968	101.670
877.096	101.546
877.224	101.505
877.352	99.454
877.480	100.722
877.608	100.237
877.737	99.515
877.865	100.340
877.993	99.392
878.121	100.670
878.249	101.227
878.377	99.433
878.505	100.567
878.633	101.670
878.762	100.897
878.890	100.165
879.018	98.948
879.146	101.598
879.274	100.536
879.402	101.649
879.530	100.423
879.658	100.433
879.787	99.619
879.915	100.186
880.043	101.423
880.171	100.928
880.299	100.557
880.427	99.485
880.555	100.742
880.683	99.928
880.812	99.959
880.940	99.371
881.068	99.711
881.196	100.526
881.324	100.485
881.452	100.186
881.580	100.392
881.708	100.505
881.837	101.031
881.965	99.227
882.093	99.227
882.221	100.041
882.349	99.144
882.477	100.072
882.605	100.515
882.733	100.907
882.862	100.938
882.990	100.629
883.118	102.959
883.246	101.227
883.374	100.227
883.502	99.433
883.630	101.856
883.758	100.876
883.887	100.794
884.015	101.320
884.143	101.381
884.271	98.918
884.399	100.000
884.527	100.021
884.655	101.351
884.783	101.144
884.912	100.629
885.040	101.423
885.168	100.175
885.296	100.979
885.424	101.216
885.552	100.227
885.680	99.155
885.808	100.773
885.937	101.392
886.065	99.711
886.193	100.577
886.321	101.072
886.449	101.268
886.577	101.443
886.705	99.722
886.833	100.495
886.962	100.835
887.090	100.155
887.218	100.124
887.346	99.227
887.474	101.804
887.602	101.742
887.730	99.825
887.858	100.557
887.987	100.464
888.115	99.247
888.243	100.082
888.371	100.546
888.499	100.959
888.627	99.918
888.755	101.216
888.883	101.124
889.012	99.340
889.140	99.763
889.268	99.907
889.396	100.443
889.524	100.557
889.652	101.000
889.780	100.247
889.908	100.412
890.037	100.443
890.165	100.485
890.293	101.010
890.421	101.031
890.549	101.588
890.677	100.330
890.805	101.381
890.933	101.268
891.062	100.247
891.190	100.423
891.318	102.072
891.446	101.206
891.574	100.722
891.702	100.309
891.830	100.454
891.958	101.825
892.087	101.351
892.215	100.845
892.343	100.804
892.471	100.268
892.599	99.804
892.727	101.567
892.855	100.557
892.983	100.526
893.112	99.216
893.240	101.742
893.368	101.412
893.496	101.598
893.624	100.309
893.752	100.412
893.880	99.567
894.008	100.814
894.137	101.113
894.265	100.309
894.393	101.000
894.521	99.938
894.649	100.557
894.777	100.402
894.905	99.691
895.033	102.753
895.162	100.804
895.290	100.680
895.418	101.103
895.546	102.268
895.674	100.505
895.802	100.186
895.930	100.742
896.058	99.722
896.187	101.474
896.315	101.423
896.443	100.907
896.571	101.546
896.699	101.196
896.827	100.237
896.955	101.660
897.083	101.103
897.212	103.402
897.340	100.660
897.468	99.639
897.596	100.485
897.724	100.330
897.852	101.021
897.980	100.794
898.108	99.784
898.237	99.948
898.365	100.990
898.493	101.041
898.621	99.351
898.749	100.773
898.877	100.000
899.005	100.062
899.133	101.134
899.262	99.454
899.390	100.113
899.518	100.990
899.646	100.526
899.774	101.010
899.902	100.887
900.030	101.144
900.158	100.732
900.287	101.433
900.415	101.196
900.543	100.474
900.671	101.567
900.799	100.330
900.927	100.113
901.055	99.464
901.183	100.536
901.312	100.505
901.440	101.216
901.568	100.856
901.696	99.897
901.824	100.227
901.952	101.392
902.080	100.938
902.208	100.876
902.337	101.732
902.465	100.629
902.593	102.340
902.721	102.041
902.849	101.227
902.977	99.247
903.105	101.134
903.233	100.742
903.362	100.753
903.490	100.371
903.618	99.268
903.746	100.753
903.874	99.969
904.002	101.928
904.130	101.464
904.258	100.639
904.387	100.918
904.515	100.278
904.643	102.186
904.771	102.031
904.899	100.711
905.027	100.619
905.155	100.134
905.283	101.742
905.412	100.691
905.540	101.113
905.668	100.454
905.796	99.742
905.924	100.330
906.052	102.227
906.180	100.918
906.308	100.093
906.437	99.010
906.565	100.918
906.693	99.392
906.821	99.660
906.949	100.464
907.077	100.216
907.205	102.299
907.333	99.907
907.462	101.876
907.590	100.515
907.718	100.155
907.846	100.309
907.974	102.371
908.102	100.742
908.230	99.763
908.358	99.186
908.487	99.175
908.615	100.536
908.743	101.278
908.871	101.175
908.999	98.990
909.127	99.639
909.255	101.412
909.383	100.093
909.512	102.175
909.640	102.299
909.768	101.794
909.896	99.918
910.024	99.639
910.152	100.732
910.280	99.536
910.408	100.835
910.537	102.052
910.665	100.742
910.793	99.938
910.921	100.144
911.049	100.619
911.177	99.845
911.305	99.784
911.433	101.485
911.562	101.701
911.690	102.443
911.818	101.423
911.946	100.701
912.074	101.567
912.202	100.722
912.330	99.907
912.458	101.237
912.587	99.608
912.715	100.928
912.843	101.794
912.971	101.546
913.099	102.309
913.227	102.495
913.355	101.474
913.483	101.505
913.612	100.536
913.740	100.866
913.868	100.289
