sample10v_at_750.00nm_cut_at_1060.50Y_01.dat
19.06.2023
11:16:17
cut middle at Y: 1060.50
top cursor: 1109 down cursor: 1012 mean of: 97 lines , 2560 datapoints
wavelength(nm)	intensity[arb. units]
585.996	730.330
586.124	702.680
586.252	709.010
586.380	710.093
586.508	707.186
586.637	709.732
586.765	713.515
586.893	705.670
587.021	714.866
587.149	712.598
587.277	707.804
587.405	709.990
587.533	710.701
587.662	715.000
587.790	720.701
587.918	711.670
588.046	711.485
588.174	714.000
588.302	714.990
588.430	714.639
588.558	720.639
588.687	715.536
588.815	730.031
588.943	723.588
589.071	718.237
589.199	716.278
589.327	722.237
589.455	712.825
589.583	721.598
589.712	721.907
589.840	718.825
589.968	716.433
590.096	723.268
590.224	716.526
590.352	725.526
590.480	717.021
590.608	722.567
590.737	720.876
590.865	719.258
590.993	711.876
591.121	717.784
591.249	722.144
591.377	718.649
591.505	721.701
591.633	718.928
591.762	724.691
591.890	729.814
592.018	721.938
592.146	729.856
592.274	725.546
592.402	710.711
592.530	721.474
592.658	722.938
592.787	723.175
592.915	724.381
593.043	727.526
593.171	727.536
593.299	729.423
593.427	728.423
593.555	723.186
593.683	727.608
593.812	737.722
593.940	740.938
594.068	740.186
594.196	745.247
594.324	738.103
594.452	740.835
594.580	747.897
594.708	748.608
594.837	751.485
594.965	753.320
595.093	757.732
595.221	758.918
595.349	751.557
595.477	755.155
595.605	763.979
595.733	766.072
595.862	768.134
595.990	758.299
596.118	762.227
596.246	764.577
596.374	766.010
596.502	768.907
596.630	772.835
596.758	772.505
596.887	778.175
597.015	776.876
597.143	770.062
597.271	766.010
597.399	780.876
597.527	775.990
597.655	776.577
597.783	768.474
597.912	776.206
598.040	771.670
598.168	778.742
598.296	778.000
598.424	773.186
598.552	775.268
598.680	770.629
598.808	772.670
598.937	769.454
599.065	770.526
599.193	775.691
599.321	769.186
599.449	775.608
599.577	775.711
599.705	774.134
599.833	780.247
599.962	764.186
600.090	775.691
600.218	770.536
600.346	776.113
600.474	776.897
600.602	775.526
600.730	770.887
600.858	777.680
600.987	780.165
601.115	791.144
601.243	782.649
601.371	782.753
601.499	786.320
601.627	790.464
601.755	787.237
601.883	788.495
602.012	786.072
602.140	786.371
602.268	792.969
602.396	803.732
602.524	797.485
602.652	800.794
602.780	801.701
602.908	806.464
603.037	814.660
603.165	810.340
603.293	820.567
603.421	817.680
603.549	816.753
603.677	823.103
603.805	820.701
603.933	825.144
604.062	834.845
604.190	832.918
604.318	839.505
604.446	838.619
604.574	837.268
604.702	842.773
604.830	847.072
604.958	851.423
605.087	855.144
605.215	855.103
605.343	858.031
605.471	866.196
605.599	864.784
605.727	863.948
605.855	862.515
605.983	860.309
606.112	878.969
606.240	883.639
606.368	874.299
606.496	875.887
606.624	882.186
606.752	879.402
606.880	877.577
607.008	883.608
607.137	886.505
607.265	888.577
607.393	888.825
607.521	889.773
607.649	887.598
607.777	890.093
607.905	893.206
608.033	890.588
608.162	888.670
608.290	882.722
608.418	902.392
608.546	892.804
608.674	901.835
608.802	891.608
608.930	898.258
609.058	895.608
609.187	892.371
609.315	886.825
609.443	895.856
609.571	898.216
609.699	897.124
609.827	891.505
609.955	896.856
610.083	884.948
610.212	894.165
610.340	894.371
610.468	895.247
610.596	898.907
610.724	892.660
610.852	898.299
610.980	895.433
611.108	908.093
611.237	898.155
611.365	892.763
611.493	895.835
611.621	892.588
611.749	908.309
611.877	905.928
612.005	903.402
612.133	911.773
612.262	909.216
612.390	914.526
612.518	910.948
612.646	911.825
612.774	919.227
612.902	923.742
613.030	926.866
613.158	920.072
613.287	931.948
613.415	938.794
613.543	933.000
613.671	932.629
613.799	932.371
613.927	936.010
614.055	939.340
614.183	940.639
614.312	936.938
614.440	944.763
614.568	948.918
614.696	959.412
614.824	956.216
614.952	952.763
615.080	967.351
615.208	969.010
615.337	970.835
615.465	963.938
615.593	974.433
615.721	975.443
615.849	978.010
615.977	967.557
616.105	979.289
616.233	983.010
616.362	979.062
616.490	982.773
616.618	981.546
616.746	984.794
616.874	992.186
617.002	980.186
617.130	998.309
617.258	981.031
617.387	984.340
617.515	991.938
617.643	1003.907
617.771	1002.546
617.899	993.722
618.027	995.866
618.155	1000.443
618.283	992.557
618.412	1002.918
618.540	1003.361
618.668	1011.608
618.796	1000.206
618.924	1012.608
619.052	1013.629
619.180	1002.918
619.308	1006.887
619.437	1006.856
619.565	1015.990
619.693	1008.629
619.821	1008.567
619.949	1012.103
620.077	1017.639
620.205	1019.062
620.333	1015.969
620.462	1021.082
620.590	1025.000
620.718	1026.031
620.846	1020.670
620.974	1024.835
621.102	1028.526
621.230	1027.649
621.358	1030.371
621.487	1018.320
621.615	1040.691
621.743	1040.928
621.871	1023.175
621.999	1018.918
622.127	1029.691
622.255	1027.938
622.383	1022.124
622.512	1037.474
622.640	1029.412
622.768	1036.897
622.896	1021.711
623.024	1028.711
623.152	1046.732
623.280	1032.588
623.408	1032.794
623.537	1033.299
623.665	1033.845
623.793	1043.031
623.921	1034.959
624.049	1039.763
624.177	1044.825
624.305	1048.742
624.433	1041.608
624.562	1039.588
624.690	1030.711
624.818	1044.670
624.946	1043.402
625.074	1039.515
625.202	1036.082
625.330	1037.619
625.458	1047.216
625.587	1043.670
625.715	1045.371
625.843	1044.856
625.971	1031.825
626.099	1046.691
626.227	1046.856
626.355	1039.918
626.483	1044.412
626.612	1043.082
626.740	1052.629
626.868	1059.216
626.996	1048.814
627.124	1058.247
627.252	1049.309
627.380	1050.928
627.508	1049.825
627.637	1059.361
627.765	1051.010
627.893	1058.948
628.021	1060.258
628.149	1064.660
628.277	1068.639
628.405	1067.742
628.533	1060.216
628.662	1060.010
628.790	1067.227
628.918	1076.052
629.046	1059.660
629.174	1059.402
629.302	1076.515
629.430	1074.619
629.558	1067.794
629.687	1080.804
629.815	1073.784
629.943	1078.433
630.071	1086.825
630.199	1088.031
630.327	1079.804
630.455	1084.515
630.583	1094.918
630.712	1093.959
630.840	1086.928
630.968	1095.711
631.096	1095.959
631.224	1091.155
631.352	1091.299
631.480	1097.598
631.608	1100.103
631.737	1104.216
631.865	1115.804
631.993	1089.062
632.121	1091.598
632.249	1105.897
632.377	1107.299
632.505	1098.804
632.633	1098.031
632.762	1095.186
632.890	1107.041
633.018	1110.268
633.146	1097.773
633.274	1107.433
633.402	1099.021
633.530	1099.371
633.658	1105.876
633.787	1101.948
633.915	1099.000
634.043	1091.062
634.171	1092.041
634.299	1105.000
634.427	1091.804
634.555	1097.237
634.683	1099.371
634.812	1090.567
634.940	1090.124
635.068	1090.371
635.196	1099.041
635.324	1104.928
635.452	1094.546
635.580	1094.588
635.708	1090.124
635.837	1081.299
635.965	1089.278
636.093	1079.577
636.221	1077.742
636.349	1084.258
636.477	1073.186
636.605	1080.887
636.733	1071.742
636.862	1076.402
636.990	1060.464
637.118	1075.588
637.246	1074.742
637.374	1067.443
637.502	1067.577
637.630	1076.196
637.758	1076.670
637.887	1060.845
638.015	1057.784
638.143	1065.536
638.271	1061.247
638.399	1061.722
638.527	1063.794
638.655	1061.990
638.783	1059.175
638.912	1062.412
639.040	1057.289
639.168	1058.165
639.296	1055.443
639.424	1063.299
639.552	1058.196
639.680	1057.093
639.808	1047.186
639.937	1047.093
640.065	1053.845
640.193	1051.845
640.321	1046.485
640.449	1059.567
640.577	1043.072
640.705	1036.351
640.833	1047.990
640.962	1040.361
641.090	1046.103
641.218	1050.278
641.346	1039.856
641.474	1047.907
641.602	1045.320
641.730	1057.515
641.858	1045.309
641.987	1057.794
642.115	1049.660
642.243	1053.031
642.371	1055.887
642.499	1042.649
642.627	1050.495
642.755	1047.536
642.883	1055.938
643.012	1057.299
643.140	1054.887
643.268	1050.464
643.396	1051.577
643.524	1053.959
643.652	1054.887
643.780	1055.464
643.908	1049.577
644.037	1052.804
644.165	1046.959
644.293	1051.804
644.421	1039.990
644.549	1049.134
644.677	1058.412
644.805	1049.722
644.933	1046.124
645.062	1051.660
645.190	1040.856
645.318	1041.856
645.446	1056.629
645.574	1056.567
645.702	1053.722
645.830	1049.959
645.958	1053.371
646.087	1044.031
646.215	1045.402
646.343	1049.216
646.471	1049.082
646.599	1058.433
646.727	1046.722
646.855	1048.629
646.983	1051.485
647.112	1055.722
647.240	1052.495
647.368	1038.928
647.496	1037.784
647.624	1043.515
647.752	1036.423
647.880	1047.320
648.008	1046.392
648.137	1021.464
648.265	1028.330
648.393	1026.784
648.521	1028.701
648.649	1031.392
648.777	1016.454
648.905	1033.237
649.033	1020.639
649.162	1025.732
649.290	1011.289
649.418	1006.010
649.546	1011.113
649.674	1018.897
649.802	1015.773
649.930	1003.247
650.058	1006.258
650.187	1004.897
650.315	1011.825
650.443	1007.649
650.571	999.794
650.699	999.567
650.827	1003.031
650.955	994.278
651.083	989.619
651.212	983.278
651.340	991.660
651.468	995.289
651.596	985.732
651.724	989.990
651.852	980.082
651.980	975.072
652.108	988.526
652.237	976.320
652.365	980.979
652.493	972.567
652.621	967.227
652.749	971.505
652.877	975.309
653.005	971.959
653.133	974.598
653.262	963.722
653.390	963.876
653.518	959.402
653.646	955.897
653.774	952.186
653.902	968.340
654.030	963.918
654.158	943.866
654.287	946.680
654.415	950.701
654.543	949.433
654.671	946.485
654.799	936.990
654.927	946.722
655.055	946.526
655.183	932.227
655.312	941.557
655.440	934.887
655.568	932.649
655.696	930.340
655.824	936.412
655.952	925.990
656.080	925.515
656.208	935.247
656.337	923.474
656.465	927.649
656.593	921.392
656.721	920.897
656.849	922.186
656.977	914.691
657.105	911.608
657.233	910.722
657.362	915.144
657.490	906.289
657.618	914.577
657.746	898.062
657.874	895.722
658.002	906.423
658.130	897.289
658.258	899.670
658.387	896.773
658.515	891.990
658.643	893.165
658.771	892.000
658.899	887.722
659.027	891.443
659.155	889.814
659.283	883.464
659.412	880.577
659.540	879.866
659.668	876.000
659.796	874.041
659.924	881.722
660.052	866.629
660.180	870.454
660.308	879.227
660.437	868.247
660.565	872.072
660.693	867.639
660.821	864.948
660.949	867.763
661.077	855.443
661.205	856.557
661.333	857.103
661.462	852.763
661.590	872.959
661.718	853.753
661.846	847.546
661.974	861.588
662.102	852.278
662.230	852.072
662.358	848.918
662.487	846.052
662.615	845.670
662.743	849.649
662.871	843.474
662.999	847.536
663.127	836.979
663.255	838.412
663.383	839.392
663.512	843.299
663.640	832.330
663.768	835.464
663.896	826.773
664.024	828.412
664.152	837.278
664.280	835.856
664.408	830.969
664.537	833.381
664.665	822.515
664.793	827.948
664.921	830.433
665.049	814.928
665.177	829.278
665.305	822.010
665.433	816.876
665.562	821.557
665.690	820.907
665.818	820.402
665.946	817.835
666.074	815.227
666.202	815.742
666.330	814.371
666.458	813.371
666.587	815.289
666.715	812.206
666.843	814.794
666.971	811.464
667.099	821.206
667.227	818.052
667.355	816.474
667.483	813.536
667.612	811.495
667.740	805.505
667.868	815.866
667.996	806.711
668.124	798.155
668.252	808.134
668.380	803.216
668.508	810.278
668.637	797.577
668.765	804.825
668.893	799.351
669.021	801.175
669.149	797.814
669.277	802.505
669.405	795.041
669.533	797.330
669.662	804.289
669.790	792.247
669.918	785.330
670.046	795.794
670.174	788.619
670.302	789.206
670.430	782.485
670.558	786.165
670.687	780.464
670.815	776.289
670.943	788.216
671.071	782.887
671.199	779.258
671.327	776.186
671.455	764.773
671.583	781.000
671.712	768.371
671.840	765.381
671.968	764.072
672.096	763.268
672.224	751.206
672.352	757.289
672.480	752.598
672.608	753.959
672.737	756.258
672.865	753.052
672.993	738.495
673.121	750.691
673.249	744.021
673.377	735.351
673.505	739.536
673.633	736.876
673.762	735.505
673.890	733.031
674.018	733.165
674.146	720.412
674.274	729.691
674.402	719.227
674.530	723.247
674.658	729.608
674.787	709.515
674.915	716.876
675.043	711.113
675.171	713.814
675.299	709.948
675.427	712.175
675.555	706.289
675.683	700.969
675.812	704.062
675.940	694.144
676.068	701.546
676.196	691.371
676.324	689.711
676.452	693.505
676.580	685.649
676.708	683.866
676.837	688.041
676.965	685.237
677.093	679.134
677.221	682.505
677.349	676.113
677.477	681.856
677.605	672.660
677.733	676.959
677.862	670.495
677.990	674.598
678.118	670.371
678.246	660.608
678.374	657.505
678.502	663.052
678.630	656.474
678.758	664.557
678.887	658.351
679.015	660.526
679.143	654.206
679.271	659.175
679.399	654.825
679.527	641.969
679.655	648.918
679.783	648.887
679.912	642.041
680.040	639.526
680.168	641.175
680.296	633.804
680.424	641.443
680.552	638.577
680.680	630.340
680.808	635.825
680.937	637.206
681.065	632.629
681.193	628.351
681.321	630.000
681.449	633.351
681.577	629.732
681.705	625.021
681.833	624.660
681.962	626.485
682.090	628.866
682.218	617.649
682.346	620.258
682.474	618.763
682.602	622.454
682.730	623.134
682.858	612.526
682.987	615.907
683.115	606.515
683.243	617.052
683.371	611.990
683.499	604.876
683.627	610.918
683.755	611.206
683.883	612.722
684.012	608.268
684.140	604.010
684.268	605.433
684.396	614.062
684.524	608.629
684.652	612.062
684.780	612.206
684.908	607.619
685.037	602.433
685.165	605.227
685.293	604.794
685.421	602.381
685.549	598.340
685.677	599.216
685.805	598.402
685.933	602.268
686.062	594.320
686.190	594.784
686.318	599.773
686.446	596.392
686.574	590.196
686.702	599.505
686.830	598.691
686.958	591.309
687.087	595.289
687.215	587.856
687.343	593.773
687.471	593.464
687.599	588.948
687.727	588.979
687.855	587.227
687.983	591.825
688.112	586.588
688.240	576.103
688.368	582.144
688.496	576.856
688.624	577.340
688.752	585.928
688.880	582.639
689.008	576.691
689.137	578.299
689.265	579.588
689.393	574.742
689.521	572.794
689.649	578.639
689.777	568.969
689.905	571.268
690.033	572.691
690.162	566.124
690.290	561.515
690.418	560.835
690.546	564.928
690.674	564.495
690.802	562.680
690.930	554.299
691.058	554.371
691.187	557.897
691.315	553.113
691.443	561.979
691.571	554.835
691.699	554.897
691.827	554.113
691.955	545.567
692.083	545.660
692.212	550.412
692.340	543.041
692.468	548.763
692.596	544.649
692.724	545.412
692.852	533.856
692.980	536.216
693.108	535.021
693.237	538.289
693.365	542.763
693.493	537.588
693.621	532.165
693.749	538.804
693.877	532.381
694.005	530.320
694.133	537.268
694.262	523.433
694.390	526.567
694.518	518.691
694.646	524.103
694.774	531.113
694.902	518.021
695.030	529.186
695.158	521.629
695.287	517.206
695.415	518.670
695.543	515.309
695.671	515.072
695.799	510.474
695.927	505.670
696.055	509.505
696.183	515.701
696.312	509.021
696.440	507.052
696.568	503.629
696.696	502.330
696.824	504.639
696.952	504.856
697.080	496.711
697.208	499.928
697.337	493.454
697.465	494.990
697.593	488.330
697.721	490.134
697.849	492.753
697.977	493.526
698.105	493.794
698.233	487.351
698.362	486.784
698.490	489.660
698.618	490.289
698.746	479.845
698.874	482.557
699.002	489.340
699.130	479.990
699.258	483.918
699.387	475.567
699.515	477.237
699.643	477.474
699.771	475.072
699.899	475.876
700.027	478.887
700.155	475.897
700.283	472.845
700.412	464.649
700.540	473.825
700.668	469.247
700.796	463.804
700.924	465.196
701.052	460.474
701.180	463.464
701.308	460.825
701.437	457.495
701.565	456.845
701.693	448.010
701.821	449.021
701.949	454.175
702.077	447.227
702.205	453.082
702.333	451.990
702.462	453.175
702.590	442.598
702.718	444.835
702.846	441.588
702.974	437.918
703.102	443.206
703.230	434.093
703.358	434.619
703.487	428.701
703.615	434.887
703.743	431.567
703.871	430.979
703.999	429.979
704.127	430.082
704.255	424.742
704.383	422.361
704.512	421.866
704.640	424.928
704.768	422.722
704.896	419.330
705.024	412.000
705.152	419.608
705.280	419.804
705.408	415.031
705.537	412.464
705.665	411.845
705.793	410.588
705.921	403.804
706.049	403.938
706.177	407.577
706.305	410.577
706.433	404.722
706.562	400.299
706.690	396.567
706.818	401.505
706.946	398.052
707.074	397.268
707.202	395.144
707.330	392.443
707.458	397.577
707.587	390.227
707.715	390.928
707.843	391.186
707.971	387.351
708.099	386.113
708.227	381.340
708.355	378.887
708.483	387.021
708.612	381.814
708.740	385.381
708.868	378.289
708.996	375.773
709.124	382.299
709.252	376.155
709.380	376.753
709.508	372.361
709.637	370.268
709.765	371.660
709.893	369.804
710.021	368.093
710.149	370.495
710.277	373.175
710.405	367.268
710.533	363.804
710.662	362.825
710.790	367.773
710.918	363.381
711.046	363.608
711.174	363.660
711.302	358.515
711.430	362.660
711.558	363.928
711.687	360.990
711.815	355.412
711.943	360.299
712.071	358.691
712.199	355.371
712.327	355.299
712.455	351.165
712.583	358.392
712.712	354.412
712.840	350.711
712.968	352.495
713.096	349.371
713.224	346.320
713.352	348.155
713.480	346.351
713.608	347.041
713.737	347.649
713.865	343.814
713.993	347.505
714.121	342.639
714.249	343.031
714.377	340.175
714.505	341.289
714.633	338.330
714.762	333.887
714.890	343.124
715.018	340.670
715.146	340.196
715.274	337.598
715.402	334.876
715.530	339.412
715.658	335.330
715.787	336.670
715.915	331.691
716.043	334.299
716.171	332.825
716.299	335.804
716.427	331.825
716.555	335.876
716.683	328.082
716.812	335.866
716.940	325.588
717.068	326.557
717.196	329.289
717.324	325.485
717.452	324.515
717.580	323.031
717.708	326.763
717.837	325.082
717.965	319.670
718.093	324.619
718.221	324.876
718.349	316.268
718.477	318.691
718.605	314.062
718.733	317.598
718.862	313.753
718.990	316.320
719.118	315.567
719.246	312.660
719.374	311.814
719.502	313.000
719.630	311.608
719.758	308.948
719.887	312.216
720.015	305.381
720.143	309.454
720.271	312.732
720.399	308.144
720.527	306.206
720.655	305.289
720.783	299.103
720.912	306.351
721.040	300.072
721.168	301.515
721.296	300.814
721.424	297.206
721.552	296.732
721.680	296.536
721.808	296.330
721.937	297.536
722.065	297.175
722.193	294.866
722.321	297.278
722.449	296.670
722.577	292.887
722.705	293.381
722.833	287.680
722.962	289.433
723.090	286.825
723.218	285.423
723.346	285.340
723.474	285.691
723.602	279.392
723.730	279.990
723.858	283.340
723.987	283.567
724.115	281.979
724.243	283.464
724.371	275.577
724.499	281.072
724.627	276.897
724.755	274.165
724.883	273.216
725.012	273.072
725.140	268.979
725.268	269.247
725.396	273.887
725.524	273.701
725.652	264.485
725.780	267.629
725.908	263.928
726.037	264.289
726.165	264.505
726.293	260.289
726.421	264.165
726.549	265.247
726.677	256.299
726.805	265.557
726.933	265.186
727.062	258.897
727.190	257.134
727.318	258.588
727.446	255.680
727.574	267.691
727.702	255.165
727.830	258.443
727.958	253.990
728.087	253.918
728.215	252.000
728.343	248.588
728.471	253.948
728.599	245.959
728.727	250.773
728.855	251.691
728.983	250.196
729.112	242.186
729.240	247.155
729.368	243.794
729.496	244.103
729.624	243.763
729.752	246.567
729.880	241.918
730.008	244.093
730.137	237.340
730.265	241.474
730.393	241.598
730.521	235.856
730.649	243.928
730.777	236.969
730.905	236.031
731.033	236.186
731.162	236.113
731.290	234.670
731.418	235.433
731.546	234.381
731.674	231.196
731.802	230.258
731.930	234.330
732.058	229.598
732.187	231.526
732.315	236.289
732.443	237.588
732.571	226.474
732.699	232.299
732.827	225.041
732.955	224.990
733.083	228.515
733.212	222.155
733.340	222.804
733.468	224.557
733.596	224.897
733.724	219.216
733.852	220.732
733.980	220.773
734.108	223.124
734.237	221.495
734.365	218.608
734.493	220.948
734.621	221.330
734.749	218.536
734.877	214.918
735.005	214.443
735.133	215.948
735.262	215.237
735.390	215.021
735.518	213.010
735.646	209.887
735.774	214.948
735.902	212.598
736.030	212.381
736.158	209.031
736.287	206.887
736.415	212.546
736.543	214.773
736.671	213.186
736.799	212.072
736.927	208.289
737.055	207.979
737.183	208.289
737.312	206.402
737.440	205.392
737.568	209.598
737.696	211.722
737.824	207.474
737.952	209.175
738.080	204.526
738.208	201.072
738.337	202.732
738.465	205.124
738.593	203.000
738.721	197.567
738.849	203.546
738.977	204.000
739.105	200.526
739.233	195.536
739.362	199.206
739.490	196.309
739.618	200.866
739.746	198.794
739.874	197.814
740.002	197.443
740.130	193.814
740.258	198.763
740.387	200.124
740.515	196.412
740.643	200.649
740.771	198.258
740.899	194.340
741.027	193.196
741.155	193.165
741.283	189.505
741.412	190.835
741.540	196.423
741.668	187.784
741.796	190.918
741.924	190.711
742.052	190.907
742.180	190.629
742.308	186.216
742.437	189.577
742.565	186.588
742.693	188.320
742.821	188.454
742.949	187.454
743.077	187.093
743.205	191.247
743.333	181.753
743.462	187.144
743.590	185.227
743.718	185.649
743.846	184.351
743.974	182.969
744.102	181.237
744.230	185.062
744.358	184.082
744.487	183.732
744.615	180.660
744.743	182.299
744.871	181.701
744.999	178.928
745.127	179.907
745.255	178.052
745.383	177.814
745.512	181.010
745.640	180.237
745.768	180.052
745.896	176.113
746.024	179.649
746.152	176.175
746.280	177.381
746.408	178.031
746.537	177.392
746.665	182.041
746.793	176.423
746.921	178.433
747.049	177.072
747.177	175.237
747.305	173.392
747.433	172.835
747.562	173.485
747.690	174.814
747.818	174.134
747.946	175.237
748.074	171.948
748.202	172.082
748.330	172.247
748.458	173.216
748.587	173.062
748.715	168.897
748.843	171.567
748.971	171.268
749.099	174.113
749.227	168.216
749.355	169.876
749.483	168.526
749.612	168.196
749.740	168.969
749.868	168.402
749.996	165.897
750.124	168.237
750.252	167.660
750.380	165.598
750.508	169.155
750.637	164.629
750.765	168.124
750.893	166.907
751.021	167.979
751.149	167.742
751.277	166.742
751.405	166.856
751.533	166.309
751.662	170.835
751.790	165.289
751.918	168.433
752.046	164.031
752.174	164.072
752.302	162.680
752.430	163.495
752.558	161.907
752.687	158.804
752.815	161.928
752.943	164.165
753.071	161.361
753.199	163.340
753.327	160.299
753.455	158.526
753.583	159.608
753.712	158.237
753.840	159.577
753.968	161.897
754.096	156.897
754.224	157.052
754.352	157.330
754.480	156.691
754.608	156.371
754.737	154.227
754.865	154.711
754.993	155.433
755.121	156.165
755.249	153.196
755.377	150.969
755.505	154.825
755.633	156.959
755.762	152.309
755.890	155.124
756.018	152.000
756.146	153.196
756.274	153.825
756.402	153.485
756.530	151.330
756.658	151.814
756.787	151.093
756.915	147.608
757.043	148.196
757.171	151.196
757.299	148.887
757.427	149.103
757.555	148.062
757.683	149.649
757.812	150.866
757.940	151.320
758.068	148.948
758.196	148.804
758.324	148.485
758.452	146.082
758.580	142.835
758.708	148.330
758.837	147.330
758.965	146.515
759.093	147.660
759.221	145.856
759.349	146.196
759.477	145.866
759.605	145.258
759.733	145.052
759.862	146.423
759.990	142.753
760.118	143.041
760.246	143.598
760.374	142.464
760.502	142.000
760.630	142.412
760.758	145.268
760.887	141.021
761.015	141.742
761.143	142.784
761.271	140.412
761.399	140.825
761.527	143.309
761.655	140.124
761.783	140.134
761.912	138.969
762.040	140.082
762.168	138.196
762.296	138.670
762.424	139.412
762.552	138.794
762.680	139.010
762.808	137.763
762.937	136.835
763.065	136.515
763.193	139.515
763.321	136.639
763.449	138.773
763.577	135.021
763.705	137.155
763.833	139.186
763.962	135.660
764.090	136.371
764.218	138.320
764.346	136.000
764.474	136.041
764.602	135.876
764.730	135.546
764.858	133.309
764.987	134.979
765.115	134.392
765.243	136.691
765.371	135.856
765.499	133.082
765.627	132.144
765.755	131.464
765.883	130.134
766.012	133.320
766.140	131.732
766.268	132.784
766.396	131.691
766.524	132.392
766.652	132.134
766.780	129.546
766.908	130.845
767.037	132.113
767.165	131.392
767.293	134.443
767.421	133.990
767.549	129.680
767.677	131.454
767.805	132.124
767.933	130.268
768.062	127.515
768.190	128.402
768.318	129.856
768.446	126.928
768.574	130.938
768.702	129.794
768.830	129.742
768.958	126.763
769.087	128.845
769.215	130.299
769.343	127.299
769.471	128.784
769.599	129.175
769.727	128.371
769.855	128.392
769.983	126.278
770.112	128.000
770.240	125.959
770.368	126.351
770.496	128.062
770.624	126.660
770.752	130.454
770.880	125.412
771.008	126.804
771.137	126.155
771.265	124.443
771.393	126.660
771.521	125.876
771.649	125.629
771.777	124.031
771.905	126.474
772.033	127.814
772.162	124.000
772.290	124.546
772.418	126.536
772.546	126.103
772.674	124.711
772.802	125.505
772.930	122.876
773.058	123.619
773.187	120.175
773.315	123.948
773.443	121.928
773.571	122.732
773.699	121.835
773.827	122.845
773.955	125.794
774.083	124.340
774.212	122.897
774.340	124.845
774.468	120.907
774.596	121.887
774.724	121.773
774.852	122.000
774.980	121.330
775.108	119.557
775.237	120.711
775.365	119.918
775.493	121.371
775.621	120.948
775.749	121.670
775.877	121.639
776.005	123.031
776.133	121.113
776.262	120.990
776.390	120.794
776.518	119.907
776.646	120.948
776.774	120.072
776.902	119.134
777.030	119.371
777.158	118.804
777.287	119.093
777.415	120.402
777.543	119.381
777.671	119.515
777.799	118.351
777.927	120.052
778.055	118.196
778.183	119.010
778.312	117.072
778.440	117.876
778.568	116.619
778.696	116.835
778.824	120.031
778.952	117.887
779.080	115.299
779.208	116.629
779.337	115.505
779.465	117.041
779.593	118.784
779.721	116.660
779.849	118.010
779.977	116.948
780.105	116.268
780.233	116.392
780.362	117.175
780.490	117.062
780.618	116.052
780.746	115.340
780.874	112.928
781.002	115.443
781.130	114.990
781.258	115.856
781.387	116.608
781.515	115.062
781.643	113.577
781.771	116.289
781.899	116.072
782.027	113.381
782.155	112.794
782.283	113.588
782.412	114.144
782.540	114.010
782.668	112.392
782.796	112.433
782.924	113.794
783.052	111.557
783.180	111.845
783.308	113.608
783.437	113.021
783.565	114.722
783.693	113.381
783.821	112.711
783.949	112.258
784.077	111.433
784.205	113.938
784.333	113.351
784.462	113.784
784.590	114.278
784.718	113.227
784.846	113.474
784.974	113.536
785.102	112.443
785.230	112.186
785.358	110.485
785.487	110.856
785.615	110.526
785.743	111.010
785.871	110.722
785.999	113.825
786.127	110.948
786.255	112.093
786.383	111.433
786.512	112.021
786.640	110.835
786.768	109.918
786.896	111.412
787.024	110.876
787.152	108.412
787.280	109.639
787.408	112.866
787.537	110.351
787.665	108.814
787.793	109.753
787.921	110.361
788.049	110.773
788.177	110.361
788.305	110.309
788.433	110.072
788.562	109.608
788.690	110.062
788.818	108.804
788.946	109.918
789.074	108.340
789.202	108.299
789.330	109.711
789.458	110.010
789.587	109.979
789.715	109.186
789.843	109.134
789.971	108.866
790.099	110.330
790.227	107.887
790.355	108.351
790.483	109.144
790.612	108.351
790.740	109.351
790.868	108.526
790.996	109.124
791.124	108.722
791.252	108.268
791.380	107.825
791.508	107.371
791.637	108.423
791.765	106.928
791.893	105.814
792.021	107.588
792.149	108.443
792.277	108.155
792.405	108.814
792.533	107.639
792.662	107.124
792.790	109.515
792.918	109.670
793.046	106.701
793.174	107.845
793.302	108.629
793.430	107.299
793.558	107.804
793.687	106.216
793.815	107.155
793.943	107.124
794.071	104.825
794.199	106.093
794.327	105.423
794.455	106.814
794.583	105.443
794.712	107.021
794.840	105.722
794.968	105.763
795.096	106.062
795.224	106.814
795.352	106.773
795.480	106.763
795.608	107.165
795.737	106.021
795.865	105.598
795.993	106.680
796.121	106.268
796.249	105.990
796.377	104.742
796.505	104.608
796.633	105.784
796.762	107.340
796.890	106.814
797.018	105.907
797.146	104.258
797.274	103.381
797.402	104.237
797.530	104.784
797.658	106.433
797.787	106.433
797.915	106.485
798.043	105.742
798.171	106.165
798.299	104.330
798.427	105.289
798.555	104.598
798.683	103.515
798.812	105.237
798.940	104.072
799.068	105.670
799.196	104.845
799.324	104.340
799.452	104.289
799.580	104.505
799.708	103.649
799.837	104.918
799.965	105.227
800.093	104.412
800.221	104.835
800.349	104.351
800.477	104.701
800.605	104.000
800.733	105.186
800.862	105.062
800.990	103.979
801.118	105.000
801.246	103.784
801.374	103.742
801.502	103.546
801.630	103.907
801.758	103.454
801.887	102.763
802.015	102.320
802.143	103.856
802.271	104.299
802.399	104.309
802.527	103.701
802.655	103.474
802.783	102.546
802.912	102.392
803.040	103.175
803.168	103.876
803.296	103.835
803.424	103.433
803.552	102.804
803.680	102.505
803.808	102.742
803.937	103.402
804.065	103.021
804.193	102.052
804.321	103.454
804.449	103.144
804.577	102.000
804.705	102.546
804.833	101.000
804.962	102.536
805.090	101.938
805.218	102.113
805.346	102.062
805.474	103.825
805.602	104.082
805.730	103.835
805.858	101.072
805.987	101.814
806.115	102.577
806.243	103.113
806.371	103.144
806.499	103.000
806.627	102.845
806.755	102.381
806.883	102.474
807.012	102.443
807.140	102.588
807.268	102.784
807.396	102.990
807.524	102.598
807.652	101.031
807.780	102.918
807.908	102.165
808.037	101.691
808.165	102.536
808.293	102.351
808.421	102.526
808.549	102.804
808.677	101.577
808.805	101.660
808.933	101.722
809.062	102.402
809.190	101.608
809.318	101.000
809.446	102.495
809.574	102.979
809.702	102.031
809.830	101.773
809.958	101.381
810.087	99.876
810.215	102.299
810.343	102.309
810.471	103.216
810.599	101.351
810.727	102.845
810.855	101.062
810.983	102.196
811.112	101.918
811.240	100.175
811.368	101.361
811.496	101.763
811.624	102.959
811.752	101.588
811.880	100.742
812.008	101.670
812.137	100.660
812.265	100.835
812.393	99.969
812.521	100.876
812.649	101.134
812.777	100.103
812.905	99.948
813.033	100.474
813.162	100.485
813.290	102.247
813.418	101.052
813.546	101.423
813.674	100.588
813.802	100.309
813.930	99.608
814.058	100.546
814.187	102.010
814.315	100.773
814.443	100.897
814.571	100.216
814.699	100.000
814.827	101.031
814.955	100.856
815.083	100.784
815.212	101.186
815.340	99.876
815.468	99.722
815.596	99.918
815.724	100.959
815.852	100.186
815.980	100.371
816.108	100.392
816.237	100.237
816.365	100.392
816.493	99.670
816.621	99.464
816.749	100.247
816.877	100.155
817.005	99.804
817.133	100.825
817.262	101.876
817.390	101.670
817.518	100.763
817.646	99.186
817.774	99.918
817.902	99.454
818.030	100.505
818.158	101.619
818.287	101.412
818.415	100.454
818.543	99.887
818.671	100.897
818.799	100.794
818.927	98.938
819.055	100.216
819.183	101.320
819.312	100.031
819.440	99.216
819.568	100.866
819.696	101.474
819.824	101.464
819.952	99.175
820.080	99.144
820.208	99.557
820.337	101.144
820.465	99.608
820.593	98.887
820.721	99.629
820.849	98.474
820.977	99.216
821.105	100.763
821.233	99.814
821.362	99.433
821.490	100.186
821.618	99.289
821.746	97.567
821.874	98.320
822.002	98.763
822.130	99.639
822.258	99.062
822.387	99.371
822.515	99.825
822.643	99.443
822.771	97.155
822.899	99.361
823.027	100.124
823.155	98.361
823.283	99.526
823.412	101.588
823.540	98.567
823.668	99.814
823.796	100.268
823.924	99.639
824.052	99.351
824.180	99.155
824.308	99.289
824.437	99.381
824.565	99.299
824.693	99.907
824.821	98.918
824.949	99.680
825.077	99.546
825.205	99.021
825.333	98.227
825.462	99.113
825.590	98.608
825.718	97.495
825.846	98.835
825.974	99.835
826.102	99.371
826.230	98.433
826.358	98.381
826.487	99.124
826.615	97.804
826.743	99.062
826.871	99.082
826.999	99.629
827.127	99.959
827.255	99.979
827.383	98.969
827.512	98.021
827.640	99.794
827.768	99.113
827.896	97.526
828.024	98.753
828.152	99.165
828.280	98.794
828.408	99.072
828.537	98.598
828.665	98.670
828.793	99.629
828.921	98.598
829.049	98.010
829.177	97.567
829.305	100.175
829.433	98.608
829.562	98.165
829.690	98.691
829.818	97.835
829.946	98.186
830.074	97.856
830.202	99.186
830.330	98.309
830.458	99.938
830.587	99.227
830.715	98.536
830.843	98.619
830.971	98.701
831.099	97.722
831.227	97.588
831.355	97.165
831.483	99.320
831.612	99.062
831.740	99.320
831.868	98.021
831.996	98.876
832.124	99.268
832.252	99.175
832.380	97.588
832.508	98.072
832.637	98.629
832.765	98.784
832.893	98.412
833.021	98.464
833.149	99.062
833.277	99.247
833.405	99.454
833.533	97.732
833.662	98.031
833.790	97.351
833.918	99.567
834.046	98.629
834.174	98.557
834.302	98.340
834.430	96.474
834.558	97.515
834.687	99.103
834.815	97.897
834.943	97.598
835.071	97.402
835.199	97.526
835.327	98.876
835.455	98.021
835.583	99.536
835.712	99.371
835.840	98.103
835.968	97.371
836.096	98.722
836.224	98.608
836.352	99.454
836.480	98.340
836.608	98.124
836.737	98.670
836.865	98.392
836.993	98.041
837.121	99.680
837.249	98.340
837.377	98.629
837.505	97.928
837.633	99.773
837.762	98.722
837.890	99.093
838.018	97.897
838.146	98.320
838.274	96.918
838.402	99.402
838.530	97.330
838.658	96.825
838.787	98.175
838.915	98.495
839.043	98.443
839.171	98.918
839.299	99.103
839.427	98.784
839.555	99.845
839.683	99.732
839.812	99.227
839.940	99.773
840.068	98.814
840.196	99.093
840.324	98.052
840.452	98.608
840.580	97.742
840.708	98.165
840.837	98.247
840.965	98.454
841.093	99.629
841.221	99.485
841.349	99.299
841.477	98.052
841.605	97.773
841.733	98.072
841.862	98.835
841.990	98.175
842.118	98.155
842.246	98.351
842.374	99.608
842.502	98.742
842.630	98.299
842.758	99.299
842.887	97.577
843.015	98.732
843.143	98.608
843.271	97.515
843.399	97.722
843.527	98.577
843.655	97.907
843.783	97.474
843.912	98.485
844.040	99.835
844.168	99.371
844.296	98.938
844.424	99.474
844.552	98.515
844.680	97.082
844.808	98.825
844.937	99.113
845.065	97.897
845.193	98.464
845.321	97.918
845.449	98.052
845.577	98.639
845.705	98.320
845.833	100.608
845.962	98.485
846.090	98.093
846.218	97.010
846.346	98.907
846.474	98.546
846.602	98.979
846.730	98.278
846.858	98.031
846.987	97.639
847.115	97.948
847.243	98.330
847.371	99.412
847.499	97.340
847.627	97.887
847.755	97.670
847.883	97.670
848.012	98.227
848.140	98.454
848.268	97.485
848.396	97.711
848.524	99.402
848.652	99.557
848.780	97.897
848.908	99.330
849.037	97.412
849.165	97.309
849.293	97.247
849.421	98.711
849.549	98.216
849.677	96.711
849.805	99.608
849.933	100.907
850.062	98.526
850.190	98.237
850.318	98.186
850.446	99.536
850.574	98.351
850.702	97.557
850.830	98.361
850.958	98.103
851.087	99.567
851.215	98.351
851.343	97.557
851.471	97.278
851.599	98.680
851.727	97.072
851.855	97.619
851.983	97.103
852.112	98.629
852.240	98.361
852.368	99.361
852.496	97.784
852.624	97.804
852.752	96.495
852.880	98.526
853.008	96.711
853.137	98.320
853.265	99.216
853.393	99.608
853.521	98.082
853.649	98.763
853.777	97.907
853.905	98.773
854.033	98.433
854.162	98.381
854.290	97.959
854.418	96.639
854.546	96.701
854.674	98.175
854.802	97.134
854.930	98.175
855.058	96.722
855.187	98.526
855.315	97.546
855.443	98.093
855.571	98.588
855.699	100.155
855.827	97.031
855.955	97.598
856.083	98.814
856.212	99.505
856.340	99.402
856.468	97.351
856.596	98.742
856.724	97.918
856.852	98.959
856.980	98.052
857.108	98.691
857.237	98.361
857.365	96.278
857.493	98.794
857.621	98.402
857.749	97.691
857.877	97.979
858.005	99.113
858.133	96.649
858.262	98.113
858.390	99.464
858.518	98.082
858.646	97.680
858.774	99.072
858.902	99.196
859.030	97.515
859.158	97.732
859.287	97.206
859.415	97.495
859.543	97.856
859.671	98.402
859.799	97.598
859.927	98.433
860.055	98.330
860.183	98.041
860.312	98.866
860.440	96.784
860.568	98.742
860.696	97.062
860.824	98.722
860.952	98.227
861.080	97.082
861.208	97.732
861.337	96.835
861.465	96.433
861.593	99.371
861.721	98.505
861.849	98.165
861.977	97.649
862.105	98.742
862.233	98.258
862.362	98.577
862.490	99.186
862.618	97.546
862.746	97.258
862.874	99.907
863.002	97.907
863.130	97.670
863.258	98.474
863.387	97.887
863.515	97.701
863.643	97.773
863.771	98.464
863.899	99.134
864.027	99.959
864.155	97.680
864.283	97.691
864.412	99.371
864.540	98.113
864.668	98.701
864.796	98.835
864.924	98.505
865.052	97.371
865.180	98.072
865.308	98.938
865.437	98.227
865.565	97.784
865.693	98.402
865.821	98.268
865.949	98.619
866.077	99.124
866.205	97.299
866.333	98.021
866.462	98.289
866.590	98.402
866.718	99.124
866.846	98.433
866.974	98.784
867.102	97.814
867.230	97.474
867.358	97.464
867.487	98.691
867.615	97.062
867.743	97.691
867.871	98.474
867.999	98.371
868.127	97.691
868.255	98.835
868.383	99.588
868.512	98.907
868.640	98.856
868.768	98.557
868.896	97.062
869.024	98.351
869.152	98.000
869.280	99.113
869.408	99.567
869.537	98.887
869.665	98.320
869.793	98.402
869.921	98.278
870.049	100.000
870.177	98.320
870.305	99.433
870.433	98.474
870.562	98.144
870.690	97.546
870.818	97.856
870.946	99.041
871.074	98.505
871.202	97.794
871.330	98.113
871.458	99.897
871.587	98.887
871.715	97.948
871.843	99.495
871.971	98.619
872.099	96.103
872.227	97.515
872.355	98.825
872.483	98.485
872.612	99.381
872.740	97.969
872.868	98.794
872.996	97.526
873.124	98.134
873.252	98.495
873.380	98.021
873.508	98.814
873.637	98.866
873.765	97.969
873.893	97.918
874.021	99.423
874.149	99.412
874.277	99.464
874.405	98.835
874.533	99.361
874.662	97.588
874.790	98.165
874.918	99.330
875.046	98.216
875.174	97.247
875.302	97.660
875.430	98.186
875.558	98.526
875.687	99.175
875.815	99.680
875.943	98.536
876.071	99.196
876.199	99.289
876.327	98.474
876.455	98.010
876.583	99.196
876.712	98.299
876.840	97.722
876.968	98.753
877.096	98.588
877.224	99.320
877.352	98.144
877.480	97.722
877.608	99.155
877.737	98.763
877.865	98.196
877.993	98.918
878.121	99.330
878.249	99.897
878.377	98.412
878.505	98.258
878.633	99.000
878.762	99.691
878.890	98.866
879.018	99.041
879.146	98.567
879.274	99.268
879.402	99.361
879.530	98.010
879.658	98.670
879.787	97.351
879.915	97.546
880.043	99.639
880.171	99.216
880.299	98.103
880.427	98.062
880.555	99.619
880.683	99.557
880.812	99.186
880.940	97.680
881.068	98.330
881.196	98.567
881.324	99.660
881.452	97.794
881.580	99.031
881.708	98.928
881.837	99.784
881.965	97.856
882.093	98.010
882.221	98.794
882.349	98.701
882.477	99.433
882.605	99.938
882.733	99.546
882.862	99.701
882.990	99.433
883.118	99.918
883.246	100.289
883.374	99.825
883.502	99.206
883.630	100.216
883.758	99.031
883.887	98.196
884.015	98.701
884.143	100.031
884.271	99.186
884.399	99.784
884.527	98.515
884.655	99.825
884.783	99.742
884.912	99.340
885.040	98.742
885.168	98.845
885.296	98.938
885.424	100.186
885.552	99.670
885.680	97.979
885.808	98.660
885.937	100.227
886.065	97.938
886.193	99.289
886.321	99.835
886.449	98.959
886.577	99.629
886.705	98.330
886.833	99.113
886.962	99.320
887.090	98.825
887.218	98.186
887.346	97.979
887.474	98.979
887.602	99.619
887.730	97.907
887.858	99.155
887.987	98.598
888.115	98.567
888.243	100.515
888.371	101.155
888.499	100.753
888.627	99.289
888.755	99.330
888.883	99.082
889.012	99.072
889.140	99.175
889.268	97.742
889.396	99.155
889.524	98.072
889.652	98.021
889.780	97.454
889.908	98.093
890.037	98.814
890.165	98.041
890.293	99.216
890.421	98.825
890.549	99.608
890.677	97.918
890.805	99.000
890.933	99.330
891.062	99.186
891.190	99.258
891.318	100.701
891.446	99.619
891.574	98.567
891.702	99.082
891.830	100.144
891.958	99.773
892.087	100.742
892.215	100.237
892.343	101.031
892.471	99.608
892.599	100.567
892.727	100.588
892.855	100.485
892.983	100.639
893.112	99.052
893.240	100.897
893.368	99.392
893.496	99.887
893.624	99.742
893.752	100.495
893.880	97.711
894.008	99.134
894.137	100.485
894.265	99.979
894.393	99.990
894.521	99.113
894.649	99.392
894.777	99.402
894.905	99.423
895.033	101.351
895.162	100.557
895.290	100.010
895.418	100.010
895.546	101.103
895.674	98.773
895.802	99.186
895.930	99.443
896.058	99.041
896.187	99.340
896.315	100.928
896.443	98.629
896.571	100.433
896.699	100.536
896.827	100.031
896.955	100.959
897.083	99.794
897.212	100.722
897.340	99.361
897.468	99.247
897.596	100.443
897.724	99.784
897.852	100.082
897.980	99.660
898.108	99.320
898.237	98.711
898.365	99.660
898.493	100.577
898.621	99.433
898.749	99.639
898.877	99.196
899.005	99.361
899.133	99.856
899.262	99.629
899.390	98.629
899.518	100.773
899.646	99.794
899.774	100.505
899.902	100.351
900.030	100.412
900.158	100.144
900.287	99.237
900.415	99.835
900.543	99.392
900.671	100.866
900.799	100.278
900.927	98.485
901.055	98.866
901.183	99.495
901.312	99.536
901.440	100.351
901.568	100.763
901.696	100.732
901.824	99.928
901.952	99.701
902.080	99.052
902.208	99.711
902.337	101.691
902.465	100.907
902.593	101.691
902.721	100.464
902.849	99.825
902.977	100.031
903.105	100.691
903.233	100.691
903.362	101.175
903.490	99.381
903.618	99.165
903.746	99.742
903.874	99.258
904.002	100.804
904.130	99.577
904.258	100.103
904.387	100.454
904.515	99.608
904.643	100.629
904.771	101.814
904.899	99.907
905.027	99.753
905.155	98.629
905.283	99.381
905.412	100.165
905.540	100.103
905.668	98.742
905.796	98.588
905.924	99.814
906.052	101.216
906.180	101.464
906.308	99.216
906.437	98.247
906.565	101.320
906.693	99.629
906.821	98.629
906.949	99.763
907.077	99.969
907.205	100.763
907.333	100.134
907.462	100.598
907.590	100.969
907.718	99.907
907.846	100.062
907.974	101.309
908.102	101.052
908.230	99.433
908.358	99.010
908.487	99.546
908.615	100.907
908.743	100.216
908.871	101.423
908.999	100.938
909.127	100.351
909.255	99.361
909.383	99.124
909.512	101.144
909.640	100.258
909.768	100.268
909.896	101.711
910.024	101.402
910.152	102.062
910.280	100.144
910.408	99.670
910.537	101.361
910.665	100.567
910.793	100.753
910.921	99.876
911.049	99.557
911.177	100.289
911.305	100.340
911.433	101.320
911.562	100.134
911.690	100.567
911.818	100.299
911.946	100.103
912.074	100.619
912.202	100.608
912.330	99.845
912.458	100.557
912.587	99.588
912.715	99.866
912.843	100.990
912.971	101.165
913.099	101.062
913.227	101.381
913.355	101.052
913.483	100.649
913.612	101.278
913.740	100.515
913.868	99.546
