70_90_90_Pol_at_750.00nm_cut_at_1179.00Y_01.dat
03.07.2023
10:51:53
cut middle at Y: 1179.00
top cursor: 1231 down cursor: 1127 mean of: 104 lines , 2560 datapoints
wavelength(nm)	intensity[arb. units]
585.996	22530.010
586.124	21863.346
586.252	21825.048
586.380	21975.923
586.508	21996.087
586.637	22155.442
586.765	22143.490
586.893	22194.327
587.021	22203.077
587.149	22347.048
587.277	22281.779
587.405	22344.587
587.533	22362.010
587.662	22456.990
587.790	22349.721
587.918	22403.442
588.046	22315.192
588.174	22368.519
588.302	22325.154
588.430	22338.663
588.558	22332.769
588.687	22396.192
588.815	22318.837
588.943	22342.779
589.071	22386.500
589.199	22372.933
589.327	22369.558
589.455	22445.106
589.583	22326.404
589.712	22428.423
589.840	22356.192
589.968	22312.596
590.096	22440.317
590.224	22438.260
590.352	22490.644
590.480	22351.308
590.608	22427.846
590.737	22363.692
590.865	22440.740
590.993	22282.894
591.121	22408.990
591.249	22367.885
591.377	22354.183
591.505	22428.481
591.633	22292.308
591.762	22463.740
591.890	22394.337
592.018	22478.183
592.146	22448.077
592.274	22449.462
592.402	22434.990
592.530	22614.923
592.658	22491.317
592.787	22540.000
592.915	22459.019
593.043	22413.125
593.171	22462.010
593.299	22541.712
593.427	22554.913
593.555	22620.875
593.683	22585.212
593.812	22562.346
593.940	22622.894
594.068	22573.894
594.196	22701.702
594.324	22579.712
594.452	22845.644
594.580	22644.163
594.708	22730.221
594.837	22774.096
594.965	22898.260
595.093	22759.327
595.221	22979.087
595.349	22883.885
595.477	22837.683
595.605	22973.087
595.733	22922.404
595.862	22972.962
595.990	22955.010
596.118	22990.250
596.246	23111.298
596.374	23017.385
596.502	23011.423
596.630	23044.038
596.758	23043.875
596.887	23162.510
597.015	23031.990
597.143	23121.000
597.271	23076.519
597.399	23159.077
597.527	23062.442
597.655	23190.615
597.783	23134.856
597.912	23193.462
598.040	23171.106
598.168	23170.135
598.296	23088.115
598.424	23300.231
598.552	23169.885
598.680	23168.288
598.808	23223.558
598.937	23140.894
599.065	23212.135
599.193	23155.817
599.321	23246.087
599.449	23133.750
599.577	23123.663
599.705	23140.856
599.833	23158.231
599.962	23149.019
600.090	23188.067
600.218	23156.981
600.346	23145.625
600.474	23104.212
600.602	23063.356
600.730	23127.250
600.858	23157.904
600.987	23136.048
601.115	23126.067
601.243	23143.827
601.371	23199.798
601.499	23167.587
601.627	23224.635
601.755	23227.779
601.883	23279.692
602.012	23118.740
602.140	23153.510
602.268	23149.673
602.396	23326.298
602.524	23280.375
602.652	23361.538
602.780	23365.115
602.908	23377.702
603.037	23442.385
603.165	23444.317
603.293	23397.231
603.421	23439.606
603.549	23510.635
603.677	23499.029
603.805	23574.346
603.933	23601.231
604.062	23706.269
604.190	23738.356
604.318	23801.750
604.446	23748.788
604.574	23782.798
604.702	23847.202
604.830	23920.260
604.958	23891.106
605.087	23990.000
605.215	24079.510
605.343	24124.317
605.471	24059.163
605.599	24049.952
605.727	24153.962
605.855	24196.346
605.983	24238.442
606.112	24265.413
606.240	24265.644
606.368	24301.192
606.496	24260.490
606.624	24440.471
606.752	24348.923
606.880	24377.519
607.008	24451.452
607.137	24469.433
607.265	24473.913
607.393	24537.635
607.521	24575.712
607.649	24534.846
607.777	24424.990
607.905	24552.981
608.033	24545.058
608.162	24510.635
608.290	24557.385
608.418	24635.683
608.546	24617.087
608.674	24621.433
608.802	24571.010
608.930	24591.625
609.058	24593.058
609.187	24596.288
609.315	24608.596
609.443	24542.452
609.571	24660.423
609.699	24555.788
609.827	24684.365
609.955	24604.125
610.083	24558.192
610.212	24576.731
610.340	24550.115
610.468	24656.683
610.596	24583.837
610.724	24564.692
610.852	24661.269
610.980	24588.615
611.108	24571.721
611.237	24587.567
611.365	24602.125
611.493	24564.250
611.621	24580.971
611.749	24536.817
611.877	24624.837
612.005	24566.385
612.133	24654.240
612.262	24647.702
612.390	24696.721
612.518	24714.596
612.646	24715.567
612.774	24772.856
612.902	24696.413
613.030	24774.433
613.158	24771.548
613.287	24841.442
613.415	24757.288
613.543	24775.135
613.671	24800.827
613.799	24803.337
613.927	24839.779
614.055	24972.548
614.183	24963.788
614.312	25002.942
614.440	25022.788
614.568	25055.490
614.696	25070.221
614.824	25117.875
614.952	25086.481
615.080	25145.163
615.208	25245.962
615.337	25332.269
615.465	25271.115
615.593	25329.173
615.721	25244.010
615.849	25356.452
615.977	25402.125
616.105	25431.731
616.233	25455.029
616.362	25498.962
616.490	25407.692
616.618	25506.163
616.746	25631.288
616.874	25629.173
617.002	25616.346
617.130	25645.663
617.258	25590.663
617.387	25642.375
617.515	25664.538
617.643	25691.894
617.771	25742.202
617.899	25758.875
618.027	25816.413
618.155	25752.269
618.283	25813.558
618.412	25837.433
618.540	26006.779
618.668	25866.394
618.796	25905.615
618.924	25880.442
619.052	25895.356
619.180	25927.952
619.308	25911.260
619.437	25852.452
619.565	25984.635
619.693	25898.173
619.821	25992.038
619.949	25964.913
620.077	26007.087
620.205	26040.894
620.333	26061.394
620.462	26042.587
620.590	26064.269
620.718	26142.548
620.846	26121.856
620.974	26053.077
621.102	26136.942
621.230	26190.750
621.358	26240.346
621.487	26219.125
621.615	26198.260
621.743	26119.019
621.871	26232.192
621.999	26153.221
622.127	26168.740
622.255	26161.231
622.383	26151.346
622.512	26174.154
622.640	26176.587
622.768	26164.731
622.896	26291.596
623.024	26221.635
623.152	26235.606
623.280	26226.212
623.408	26264.125
623.537	26353.096
623.665	26281.567
623.793	26322.048
623.921	26312.702
624.049	26260.298
624.177	26308.913
624.305	26223.510
624.433	26248.462
624.562	26378.019
624.690	26428.769
624.818	26347.808
624.946	26319.231
625.074	26269.067
625.202	26316.163
625.330	26332.000
625.458	26475.221
625.587	26391.163
625.715	26440.365
625.843	26447.606
625.971	26484.692
626.099	26509.135
626.227	26464.510
626.355	26455.346
626.483	26484.721
626.612	26460.452
626.740	26509.308
626.868	26454.692
626.996	26613.712
627.124	26511.058
627.252	26537.865
627.380	26606.500
627.508	26550.885
627.637	26590.356
627.765	26704.038
627.893	26594.519
628.021	26681.500
628.149	26610.452
628.277	26721.779
628.405	26697.327
628.533	26690.019
628.662	26693.740
628.790	26879.308
628.918	26790.846
629.046	26903.962
629.174	26759.010
629.302	26837.740
629.430	26857.077
629.558	26856.577
629.687	26845.135
629.815	26919.183
629.943	27029.577
630.071	26950.856
630.199	26965.317
630.327	27028.865
630.455	27008.769
630.583	27070.673
630.712	27105.981
630.840	27095.692
630.968	27068.154
631.096	27111.904
631.224	27151.827
631.352	27257.529
631.480	27240.452
631.608	27369.731
631.737	27212.279
631.865	27360.769
631.993	27321.106
632.121	27464.788
632.249	27360.683
632.377	27265.846
632.505	27325.635
632.633	27483.817
632.762	27356.981
632.890	27431.346
633.018	27411.144
633.146	27433.538
633.274	27437.452
633.402	27503.202
633.530	27446.712
633.658	27463.894
633.787	27463.260
633.915	27482.221
634.043	27510.538
634.171	27546.077
634.299	27552.221
634.427	27536.692
634.555	27792.702
634.683	27596.856
634.812	27557.192
634.940	27494.144
635.068	27576.106
635.196	27556.981
635.324	27459.423
635.452	27446.875
635.580	27607.683
635.708	27499.346
635.837	27505.990
635.965	27489.173
636.093	27456.308
636.221	27469.279
636.349	27425.971
636.477	27384.952
636.605	27430.913
636.733	27416.375
636.862	27389.154
636.990	27424.740
637.118	27337.740
637.246	27313.423
637.374	27475.856
637.502	27285.067
637.630	27337.692
637.758	27231.971
637.887	27198.769
638.015	27322.337
638.143	27284.904
638.271	27190.875
638.399	27194.144
638.527	27138.904
638.655	27127.567
638.783	27194.279
638.912	27148.548
639.040	27074.721
639.168	26994.442
639.296	27058.019
639.424	27090.529
639.552	26941.135
639.680	26986.500
639.808	27018.894
639.937	26998.846
640.065	27013.163
640.193	27002.567
640.321	27061.077
640.449	27106.673
640.577	26997.250
640.705	27034.519
640.833	26952.933
640.962	27057.048
641.090	26932.952
641.218	26983.442
641.346	27076.125
641.474	27038.288
641.602	27018.433
641.730	27010.260
641.858	27008.740
641.987	27025.298
642.115	27134.856
642.243	27093.154
642.371	27166.250
642.499	27038.913
642.627	27117.471
642.755	27060.481
642.883	27057.298
643.012	27057.269
643.140	27165.587
643.268	27142.654
643.396	27070.990
643.524	27181.981
643.652	27203.288
643.780	27086.000
643.908	27198.490
644.037	27274.202
644.165	27230.077
644.293	27360.510
644.421	27158.346
644.549	27300.500
644.677	27264.192
644.805	27222.952
644.933	27245.231
645.062	27221.279
645.190	27362.558
645.318	27237.712
645.446	27284.452
645.574	27257.606
645.702	27317.558
645.830	27247.019
645.958	27142.981
646.087	27261.606
646.215	27212.240
646.343	27210.942
646.471	27299.279
646.599	27162.567
646.727	27221.423
646.855	27253.981
646.983	27225.952
647.112	27234.856
647.240	27186.615
647.368	27243.692
647.496	27191.913
647.624	27181.923
647.752	27155.846
647.880	27116.981
648.008	27170.692
648.137	27179.615
648.265	27155.010
648.393	27110.894
648.521	27032.615
648.649	27219.260
648.777	27082.875
648.905	27052.606
649.033	27106.856
649.162	26914.038
649.290	26830.106
649.418	26862.202
649.546	27030.096
649.674	26927.183
649.802	26820.894
649.930	26774.731
650.058	26750.279
650.187	26762.865
650.315	26706.885
650.443	26732.615
650.571	26570.942
650.699	26534.000
650.827	26621.798
650.955	26523.394
651.083	26603.317
651.212	26438.481
651.340	26482.423
651.468	26454.808
651.596	26451.644
651.724	26403.202
651.852	26337.837
651.980	26355.846
652.108	26249.779
652.237	26351.500
652.365	26283.731
652.493	26161.788
652.621	26119.865
652.749	26105.615
652.877	26013.981
653.005	26079.596
653.133	26071.250
653.262	25968.577
653.390	25939.519
653.518	26063.567
653.646	25937.846
653.774	25881.096
653.902	25945.221
654.030	25782.462
654.158	25752.442
654.287	25715.913
654.415	25608.635
654.543	25734.413
654.671	25682.942
654.799	25600.154
654.927	25622.212
655.055	25578.240
655.183	25459.173
655.312	25481.452
655.440	25339.779
655.568	25381.173
655.696	25409.615
655.824	25382.712
655.952	25344.510
656.080	25171.760
656.208	25220.433
656.337	25286.750
656.465	25373.615
656.593	25144.548
656.721	25218.154
656.849	25232.433
656.977	24960.683
657.105	24927.106
657.233	25011.173
657.362	24983.683
657.490	24983.635
657.618	24867.163
657.746	24962.019
657.874	24778.942
658.002	24746.635
658.130	24700.952
658.258	24635.000
658.387	24575.375
658.515	24576.606
658.643	24529.913
658.771	24563.481
658.899	24408.288
659.027	24401.135
659.155	24388.029
659.283	24321.856
659.412	24344.394
659.540	24243.471
659.668	24357.846
659.796	24342.490
659.924	24281.769
660.052	24337.567
660.180	24285.337
660.308	24314.481
660.437	24246.317
660.565	24180.798
660.693	24147.663
660.821	24254.240
660.949	24014.990
661.077	24018.317
661.205	24172.702
661.333	23975.144
661.462	23882.538
661.590	23919.962
661.718	23789.942
661.846	23840.971
661.974	23845.481
662.102	23815.385
662.230	23734.250
662.358	23682.192
662.487	23704.279
662.615	23550.625
662.743	23607.808
662.871	23514.538
662.999	23567.212
663.127	23456.644
663.255	23476.625
663.383	23539.048
663.512	23324.846
663.640	23354.240
663.768	23316.019
663.896	23264.577
664.024	23257.154
664.152	23262.567
664.280	23308.221
664.408	23152.471
664.537	23118.394
664.665	23146.221
664.793	23082.279
664.921	22983.673
665.049	23151.385
665.177	22991.221
665.305	22934.442
665.433	22980.077
665.562	23101.269
665.690	22902.471
665.818	22995.702
665.946	22802.894
666.074	22729.173
666.202	22818.933
666.330	22719.212
666.458	23055.846
666.587	22621.269
666.715	22554.500
666.843	22537.577
666.971	22613.952
667.099	22575.942
667.227	22554.673
667.355	22561.596
667.483	22457.644
667.612	22485.644
667.740	22335.048
667.868	22379.952
667.996	22284.769
668.124	22368.904
668.252	22371.183
668.380	22288.635
668.508	22352.385
668.637	22168.702
668.765	22138.817
668.893	22072.327
669.021	22000.298
669.149	22037.692
669.277	21923.865
669.405	21992.163
669.533	21982.952
669.662	21850.337
669.790	21819.865
669.918	21837.894
670.046	21880.788
670.174	21699.163
670.302	21697.596
670.430	21595.663
670.558	21665.558
670.687	21673.904
670.815	21520.183
670.943	21473.221
671.071	21357.481
671.199	21316.029
671.327	21308.913
671.455	21348.519
671.583	21249.192
671.712	21178.587
671.840	21149.904
671.968	21275.317
672.096	21142.433
672.224	20933.519
672.352	20943.106
672.480	20855.894
672.608	20795.750
672.737	20743.808
672.865	20678.394
672.993	20609.087
673.121	20568.260
673.249	20436.058
673.377	20507.144
673.505	20331.538
673.633	20372.144
673.762	20326.519
673.890	20198.692
674.018	20303.712
674.146	20138.375
674.274	20117.510
674.402	20136.644
674.530	20047.971
674.658	19899.346
674.787	19854.163
674.915	19916.654
675.043	19824.125
675.171	19706.913
675.299	19588.606
675.427	19643.596
675.555	19555.731
675.683	19463.442
675.812	19368.798
675.940	19382.856
676.068	19309.163
676.196	19342.712
676.324	19139.798
676.452	19055.760
676.580	18997.702
676.708	18975.144
676.837	18915.875
676.965	18926.510
677.093	19009.365
677.221	18763.875
677.349	18635.712
677.477	18687.087
677.605	18630.452
677.733	18434.673
677.862	18456.856
677.990	18429.923
678.118	18370.740
678.246	18344.308
678.374	18277.837
678.502	18223.038
678.630	18137.096
678.758	18079.423
678.887	18105.462
679.015	17896.827
679.143	17860.413
679.271	17815.000
679.399	17777.654
679.527	17756.125
679.655	17820.519
679.783	17601.029
679.912	17555.625
680.040	17669.865
680.168	17377.558
680.296	17389.894
680.424	17367.798
680.552	17315.231
680.680	17255.865
680.808	17188.337
680.937	17157.981
681.065	17118.221
681.193	17001.942
681.321	16993.567
681.449	17014.913
681.577	16889.029
681.705	16876.356
681.833	16866.952
681.962	16740.731
682.090	16672.558
682.218	16665.240
682.346	16643.115
682.474	16514.904
682.602	16518.596
682.730	16544.856
682.858	16377.115
682.987	16394.115
683.115	16351.635
683.243	16331.481
683.371	16264.865
683.499	16160.163
683.627	16202.048
683.755	16110.231
683.883	16127.260
684.012	16111.173
684.140	15941.173
684.268	16032.019
684.396	15964.846
684.524	15911.183
684.652	15856.327
684.780	15893.087
684.908	15826.490
685.037	15855.087
685.165	15745.471
685.293	15729.500
685.421	15737.240
685.549	15666.375
685.677	15574.856
685.805	15624.019
685.933	15528.202
686.062	15554.962
686.190	15464.192
686.318	15419.029
686.446	15396.644
686.574	15288.010
686.702	15345.846
686.830	15298.702
686.958	15306.788
687.087	15162.087
687.215	15168.000
687.343	15122.135
687.471	15216.558
687.599	14956.317
687.727	14966.913
687.855	14900.029
687.983	14834.346
688.112	14846.250
688.240	14764.048
688.368	14811.087
688.496	14654.346
688.624	14676.077
688.752	14808.856
688.880	14596.510
689.008	14510.558
689.137	14536.096
689.265	14486.548
689.393	14378.683
689.521	14379.260
689.649	14431.779
689.777	14303.750
689.905	14335.404
690.033	14191.087
690.162	14157.712
690.290	14169.990
690.418	14090.548
690.546	14032.423
690.674	14010.135
690.802	13987.635
690.930	13915.529
691.058	13833.635
691.187	13788.673
691.315	13730.298
691.443	13649.635
691.571	13664.750
691.699	13547.894
691.827	13523.712
691.955	13508.038
692.083	13444.038
692.212	13358.010
692.340	13357.769
692.468	13309.577
692.596	13260.183
692.724	13168.673
692.852	13144.875
692.980	13158.442
693.108	13106.990
693.237	12955.404
693.365	12918.904
693.493	12881.606
693.621	12823.692
693.749	12767.644
693.877	12764.500
694.005	12619.019
694.133	12590.471
694.262	12608.442
694.390	12487.096
694.518	12459.606
694.646	12399.865
694.774	12311.288
694.902	12286.529
695.030	12232.279
695.158	12175.798
695.287	12184.538
695.415	12088.433
695.543	12040.375
695.671	11950.942
695.799	12027.529
695.927	11902.577
696.055	11859.942
696.183	11785.260
696.312	11899.760
696.440	11727.202
696.568	11682.837
696.696	11540.221
696.824	11472.740
696.952	11467.163
697.080	11414.038
697.208	11366.558
697.337	11280.788
697.465	11275.587
697.593	11162.173
697.721	11259.558
697.849	11079.904
697.977	11069.269
698.105	11099.683
698.233	10977.240
698.362	10860.029
698.490	10984.837
698.618	10792.644
698.746	10735.106
698.874	10744.904
699.002	10664.712
699.130	10637.212
699.258	10558.567
699.387	10498.183
699.515	10534.231
699.643	10505.308
699.771	10491.529
699.899	10336.337
700.027	10237.856
700.155	10302.683
700.283	10159.769
700.412	10145.260
700.540	10123.712
700.668	10142.567
700.796	9997.115
700.924	9983.192
701.052	9955.587
701.180	9928.327
701.308	9806.567
701.437	9730.298
701.565	9717.423
701.693	9713.721
701.821	9868.923
701.949	9578.327
702.077	9531.298
702.205	9622.952
702.333	9482.288
702.462	9386.154
702.590	9477.154
702.718	9307.846
702.846	9468.337
702.974	9209.731
703.102	9161.962
703.230	9175.981
703.358	9086.442
703.487	9031.529
703.615	9008.865
703.743	8924.269
703.871	8949.750
703.999	8870.231
704.127	8815.529
704.255	8762.923
704.383	8756.337
704.512	8774.952
704.640	8704.288
704.768	8739.337
704.896	8588.115
705.024	8468.308
705.152	8512.067
705.280	8512.596
705.408	8387.808
705.537	8332.385
705.665	8313.712
705.793	8270.596
705.921	8263.135
706.049	8150.048
706.177	8179.760
706.305	8100.971
706.433	8105.519
706.562	8060.683
706.690	8024.827
706.818	7982.692
706.946	7902.760
707.074	7845.817
707.202	7814.077
707.330	7764.625
707.458	7734.923
707.587	7685.615
707.715	7681.904
707.843	7646.212
707.971	7629.000
708.099	7529.154
708.227	7493.115
708.355	7459.346
708.483	7452.856
708.612	7405.596
708.740	7325.962
708.868	7311.644
708.996	7352.644
709.124	7306.942
709.252	7245.750
709.380	7232.394
709.508	7159.692
709.637	7151.519
709.765	7118.433
709.893	7104.606
710.021	6988.731
710.149	7099.250
710.277	6943.769
710.405	6948.087
710.533	6881.933
710.662	6855.135
710.790	6979.721
710.918	6763.971
711.046	6825.731
711.174	6748.519
711.302	6743.240
711.430	6694.779
711.558	6707.125
711.687	6658.798
711.815	6564.375
711.943	6544.144
712.071	6539.529
712.199	6556.346
712.327	6603.654
712.455	6442.231
712.583	6596.817
712.712	6418.288
712.840	6452.673
712.968	6368.942
713.096	6305.442
713.224	6287.462
713.352	6262.635
713.480	6215.385
713.608	6172.375
713.737	6141.798
713.865	6196.654
713.993	6140.462
714.121	6104.442
714.249	6047.529
714.377	6005.452
714.505	5984.404
714.633	5999.683
714.762	5955.308
714.890	5940.990
715.018	5920.212
715.146	5922.048
715.274	5844.712
715.402	5829.279
715.530	5785.365
715.658	5806.423
715.787	5750.692
715.915	5812.827
716.043	5682.308
716.171	5800.404
716.299	5617.760
716.427	5676.250
716.555	5601.356
716.683	5552.240
716.812	5570.125
716.940	5527.625
717.068	5488.683
717.196	5598.942
717.324	5470.125
717.452	5434.750
717.580	5454.375
717.708	5360.288
717.837	5354.519
717.965	5345.000
718.093	5292.606
718.221	5304.163
718.349	5296.115
718.477	5228.808
718.605	5272.788
718.733	5209.433
718.862	5206.779
718.990	5099.423
719.118	5157.587
719.246	5075.221
719.374	5059.115
719.502	5080.365
719.630	5118.135
719.758	4978.808
719.887	4959.337
720.015	4969.250
720.143	4989.452
720.271	4869.490
720.399	4902.769
720.527	4832.144
720.655	4902.404
720.783	4802.538
720.912	4761.760
721.040	4744.298
721.168	4737.192
721.296	4662.990
721.424	4655.750
721.552	4628.000
721.680	4639.183
721.808	4617.644
721.937	4579.519
722.065	4585.327
722.193	4551.644
722.321	4518.558
722.449	4503.087
722.577	4428.500
722.705	4427.423
722.833	4419.635
722.962	4411.788
723.090	4364.673
723.218	4332.567
723.346	4362.346
723.474	4294.808
723.602	4249.837
723.730	4243.971
723.858	4203.462
723.987	4218.433
724.115	4179.260
724.243	4195.000
724.371	4146.212
724.499	4139.423
724.627	4103.808
724.755	4053.308
724.883	4132.279
725.012	4174.471
725.140	4029.077
725.268	3972.779
725.396	3987.356
725.524	4030.067
725.652	3898.135
725.780	3987.087
725.908	3849.250
726.037	3828.567
726.165	3838.337
726.293	3775.731
726.421	3776.337
726.549	3776.567
726.677	3727.952
726.805	3680.654
726.933	3670.308
727.062	3652.663
727.190	3643.365
727.318	3613.971
727.446	3616.212
727.574	3583.462
727.702	3564.510
727.830	3589.144
727.958	3579.904
728.087	3591.923
728.215	3611.654
728.343	3497.317
728.471	3493.510
728.599	3570.096
728.727	3446.490
728.855	3429.298
728.983	3405.721
729.112	3400.923
729.240	3386.385
729.368	3351.173
729.496	3327.894
729.624	3338.375
729.752	3312.250
729.880	3312.654
730.008	3261.394
730.137	3238.962
730.265	3208.750
730.393	3208.875
730.521	3143.279
730.649	3080.702
730.777	3079.260
730.905	3062.356
731.033	3044.202
731.162	3058.413
731.290	3072.058
731.418	3038.779
731.546	3021.308
731.674	3025.221
731.802	3017.750
731.930	3018.990
732.058	3006.212
732.187	3000.471
732.315	3025.462
732.443	3029.635
732.571	3039.433
732.699	3016.913
732.827	3042.558
732.955	2991.202
733.083	2949.990
733.212	2920.471
733.340	2913.077
733.468	2885.356
733.596	2867.327
733.724	2849.058
733.852	2863.048
733.980	2823.385
734.108	2855.144
734.237	2819.712
734.365	2815.606
734.493	2782.192
734.621	2771.327
734.749	2777.154
734.877	2734.317
735.005	2722.692
735.133	2720.106
735.262	2721.558
735.390	2677.769
735.518	2691.885
735.646	2676.846
735.774	2684.279
735.902	2664.635
736.030	2623.625
736.158	2628.115
736.287	2623.721
736.415	2603.577
736.543	2573.365
736.671	2567.163
736.799	2559.923
736.927	2571.692
737.055	2575.894
737.183	2525.615
737.312	2500.394
737.440	2510.798
737.568	2504.096
737.696	2495.106
737.824	2493.692
737.952	2687.933
738.080	2441.808
738.208	2442.240
738.337	2434.510
738.465	2433.779
738.593	2399.192
738.721	2372.538
738.849	2387.423
738.977	2361.683
739.105	2393.904
739.233	2366.135
739.362	2343.067
739.490	2334.933
739.618	2341.558
739.746	2324.385
739.874	2293.567
740.002	2299.606
740.130	2257.990
740.258	2269.317
740.387	2267.673
740.515	2252.385
740.643	2215.635
740.771	2231.423
740.899	2204.558
741.027	2191.519
741.155	2201.288
741.283	2176.663
741.412	2190.750
741.540	2152.154
741.668	2147.048
741.796	2151.000
741.924	2121.644
742.052	2129.394
742.180	2122.308
742.308	2085.971
742.437	2092.529
742.565	2086.202
742.693	2084.769
742.821	2079.837
742.949	2044.952
743.077	2024.260
743.205	2016.452
743.333	2006.231
743.462	2012.433
743.590	1983.712
743.718	1981.548
743.846	1970.260
743.974	2000.692
744.102	1950.692
744.230	1951.250
744.358	1944.106
744.487	1922.827
744.615	1907.462
744.743	1911.298
744.871	1900.337
744.999	1885.212
745.127	1892.856
745.255	1849.462
745.383	1853.731
745.512	1849.087
745.640	1831.135
745.768	1834.000
745.896	1839.894
746.024	1815.317
746.152	1802.240
746.280	1789.490
746.408	1799.519
746.537	1767.808
746.665	1777.962
746.793	1748.260
746.921	1745.385
747.049	1731.702
747.177	1730.096
747.305	1756.837
747.433	1720.356
747.562	1704.587
747.690	1715.740
747.818	1687.154
747.946	1691.452
748.074	1665.558
748.202	1658.692
748.330	1661.048
748.458	1639.106
748.587	1650.231
748.715	1650.288
748.843	1610.971
748.971	1611.471
749.099	1624.452
749.227	1605.240
749.355	1612.529
749.483	1574.692
749.612	1599.721
749.740	1583.183
749.868	1566.712
749.996	1567.923
750.124	1562.202
750.252	1531.846
750.380	1542.481
750.508	1543.038
750.637	1508.933
750.765	1523.837
750.893	1510.029
751.021	1498.462
751.149	1492.577
751.277	1480.875
751.405	1467.183
751.533	1487.625
751.662	1443.683
751.790	1459.721
751.918	1443.115
752.046	1430.462
752.174	1425.567
752.302	1414.163
752.430	1402.962
752.558	1404.308
752.687	1398.760
752.815	1401.750
752.943	1383.462
753.071	1383.635
753.199	1373.558
753.327	1379.885
753.455	1353.952
753.583	1351.317
753.712	1340.952
753.840	1345.692
753.968	1322.971
754.096	1330.452
754.224	1327.279
754.352	1306.375
754.480	1320.962
754.608	1290.673
754.737	1299.163
754.865	1296.548
754.993	1295.356
755.121	1286.115
755.249	1265.269
755.377	1242.904
755.505	1252.875
755.633	1252.500
755.762	1233.279
755.890	1238.606
756.018	1226.827
756.146	1210.471
756.274	1208.587
756.402	1201.712
756.530	1217.221
756.658	1193.500
756.787	1180.471
756.915	1173.058
757.043	1167.096
757.171	1164.663
757.299	1166.692
757.427	1156.635
757.555	1145.769
757.683	1137.375
757.812	1150.971
757.940	1130.125
758.068	1121.769
758.196	1112.346
758.324	1117.577
758.452	1108.125
758.580	1110.115
758.708	1084.596
758.837	1103.981
758.965	1096.817
759.093	1081.346
759.221	1066.365
759.349	1053.337
759.477	1065.625
759.605	1049.721
759.733	1063.577
759.862	1030.798
759.990	1034.913
760.118	1031.221
760.246	1036.115
760.374	1018.192
760.502	1013.154
760.630	1015.288
760.758	998.010
760.887	999.990
761.015	988.308
761.143	997.442
761.271	991.538
761.399	977.442
761.527	987.875
761.655	978.635
761.783	957.298
761.912	960.279
762.040	970.163
762.168	935.856
762.296	942.788
762.424	947.567
762.552	953.135
762.680	926.231
762.808	938.000
762.937	923.337
763.065	905.808
763.193	901.019
763.321	897.663
763.449	894.846
763.577	887.135
763.705	903.923
763.833	888.702
763.962	879.231
764.090	869.288
764.218	869.654
764.346	856.500
764.474	868.221
764.602	854.558
764.730	855.837
764.858	851.231
764.987	847.500
765.115	833.692
765.243	823.529
765.371	831.856
765.499	822.481
765.627	823.673
765.755	824.337
765.883	813.087
766.012	811.471
766.140	805.990
766.268	795.115
766.396	796.721
766.524	799.952
766.652	788.760
766.780	793.644
766.908	780.817
767.037	799.106
767.165	778.644
767.293	777.635
767.421	772.135
767.549	760.490
767.677	783.490
767.805	758.596
767.933	767.346
768.062	744.423
768.190	743.635
768.318	744.452
768.446	742.490
768.574	734.663
768.702	733.077
768.830	734.212
768.958	726.712
769.087	731.413
769.215	725.365
769.343	726.279
769.471	726.635
769.599	717.548
769.727	715.933
769.855	707.837
769.983	734.683
770.112	703.356
770.240	690.875
770.368	686.288
770.496	686.231
770.624	690.548
770.752	679.250
770.880	689.500
771.008	679.087
771.137	667.558
771.265	663.606
771.393	659.702
771.521	671.702
771.649	676.394
771.777	693.202
771.905	712.154
772.033	693.163
772.162	646.567
772.290	648.452
772.418	654.288
772.546	636.212
772.674	642.731
772.802	634.260
772.930	636.865
773.058	627.337
773.187	629.548
773.315	621.596
773.443	627.904
773.571	627.144
773.699	617.413
773.827	628.038
773.955	632.135
774.083	619.327
774.212	609.558
774.340	606.913
774.468	599.808
774.596	598.462
774.724	608.096
774.852	607.981
774.980	599.173
775.108	586.029
775.237	594.221
775.365	587.510
775.493	593.154
775.621	581.567
775.749	582.894
775.877	591.769
776.005	586.510
776.133	576.500
776.262	573.683
776.390	573.375
776.518	560.548
776.646	564.663
776.774	568.058
776.902	559.962
777.030	548.654
777.158	561.817
777.287	567.490
777.415	547.173
777.543	557.423
777.671	552.029
777.799	549.115
777.927	546.212
778.055	548.375
778.183	541.769
778.312	542.375
778.440	535.827
778.568	554.538
778.696	543.327
778.824	538.192
778.952	534.971
779.080	527.298
779.208	524.904
779.337	525.817
779.465	533.990
779.593	514.029
779.721	523.798
779.849	520.788
779.977	520.269
780.105	514.375
780.233	522.923
780.362	513.702
780.490	508.135
780.618	511.788
780.746	499.221
780.874	505.577
781.002	508.673
781.130	498.952
781.258	491.654
781.387	506.567
781.515	497.615
781.643	485.077
781.771	494.750
781.899	499.760
782.027	489.000
782.155	490.279
782.283	486.394
782.412	495.087
782.540	490.712
782.668	487.769
782.796	480.654
782.924	493.663
783.052	486.106
783.180	471.154
783.308	473.490
783.437	471.606
783.565	481.135
783.693	475.548
783.821	474.827
783.949	471.212
784.077	471.500
784.205	466.115
784.333	460.423
784.462	471.817
784.590	452.894
784.718	448.000
784.846	459.692
784.974	472.038
785.102	452.202
785.230	451.808
785.358	448.990
785.487	447.510
785.615	443.538
785.743	446.894
785.871	455.875
785.999	452.740
786.127	450.923
786.255	434.952
786.383	442.413
786.512	443.885
786.640	438.337
786.768	430.798
786.896	433.067
787.024	422.904
787.152	429.250
787.280	447.731
787.408	434.577
787.537	432.317
787.665	436.087
787.793	420.519
787.921	422.337
788.049	420.558
788.177	420.615
788.305	413.760
788.433	417.394
788.562	418.288
788.690	413.221
788.818	415.952
788.946	411.702
789.074	406.029
789.202	407.346
789.330	406.615
789.458	416.923
789.587	403.385
789.715	409.913
789.843	414.760
789.971	402.317
790.099	394.308
790.227	397.260
790.355	396.788
790.483	399.394
790.612	399.740
790.740	405.702
790.868	393.519
790.996	405.048
791.124	406.019
791.252	403.635
791.380	389.163
791.508	396.490
791.637	393.490
791.765	377.442
791.893	393.663
792.021	393.625
792.149	378.635
792.277	392.808
792.405	374.894
792.533	390.240
792.662	377.913
792.790	380.000
792.918	393.567
793.046	375.817
793.174	373.067
793.302	372.596
793.430	378.615
793.558	384.106
793.687	372.125
793.815	366.481
793.943	378.567
794.071	364.904
794.199	367.106
794.327	373.923
794.455	371.442
794.583	363.356
794.712	363.913
794.840	363.779
794.968	371.163
795.096	376.221
795.224	346.558
795.352	401.048
795.480	353.048
795.608	355.327
795.737	353.683
795.865	347.221
795.993	359.683
796.121	352.894
796.249	343.587
796.377	349.144
796.505	348.423
796.633	352.337
796.762	341.721
796.890	343.154
797.018	347.490
797.146	353.144
797.274	350.837
797.402	340.702
797.530	337.933
797.658	334.356
797.787	351.240
797.915	341.865
798.043	338.663
798.171	337.721
798.299	333.856
798.427	339.327
798.555	346.356
798.683	334.798
798.812	358.115
798.940	378.712
799.068	366.337
799.196	339.433
799.324	342.067
799.452	325.798
799.580	325.673
799.708	326.712
799.837	328.817
799.965	319.615
800.093	325.048
800.221	323.106
800.349	325.981
800.477	313.337
800.605	320.635
800.733	330.490
800.862	314.990
800.990	316.635
801.118	316.173
801.246	320.000
801.374	318.654
801.502	309.375
801.630	313.269
801.758	313.154
801.887	309.933
802.015	318.885
802.143	305.904
802.271	311.423
802.399	301.721
802.527	305.125
802.655	307.038
802.783	309.404
802.912	302.712
803.040	298.010
803.168	301.077
803.296	307.510
803.424	300.529
803.552	304.567
803.680	303.413
803.808	298.788
803.937	300.260
804.065	302.115
804.193	299.875
804.321	316.048
804.449	314.260
804.577	301.038
804.705	314.087
804.833	294.731
804.962	291.846
805.090	296.952
805.218	287.788
805.346	293.067
805.474	306.308
805.602	292.260
805.730	304.067
805.858	282.625
805.987	285.279
806.115	285.250
806.243	294.490
806.371	288.740
806.499	288.356
806.627	284.519
806.755	285.221
806.883	284.663
807.012	277.990
807.140	289.692
807.268	272.990
807.396	280.529
807.524	279.942
807.652	285.962
807.780	280.740
807.908	283.587
808.037	292.192
808.165	288.596
808.293	274.433
808.421	276.365
808.549	277.202
808.677	279.827
808.805	292.971
808.933	273.221
809.062	276.212
809.190	284.413
809.318	279.827
809.446	274.115
809.574	280.596
809.702	272.558
809.830	265.990
809.958	281.654
810.087	274.510
810.215	269.760
810.343	277.702
810.471	272.298
810.599	262.154
810.727	272.548
810.855	266.058
810.983	266.740
811.112	267.442
811.240	269.077
811.368	268.798
811.496	266.933
811.624	265.038
811.752	269.385
811.880	278.625
812.008	271.240
812.137	275.846
812.265	261.837
812.393	264.808
812.521	252.423
812.649	263.404
812.777	257.856
812.905	263.952
813.033	272.615
813.162	258.760
813.290	257.260
813.418	256.933
813.546	257.644
813.674	253.106
813.802	259.144
813.930	254.375
814.058	252.308
814.187	255.490
814.315	257.721
814.443	249.183
814.571	254.548
814.699	247.212
814.827	251.865
814.955	256.212
815.083	250.731
815.212	255.788
815.340	246.048
815.468	254.788
815.596	245.538
815.724	252.413
815.852	259.337
815.980	249.519
816.108	247.769
816.237	253.010
816.365	258.288
816.493	244.000
816.621	255.702
816.749	238.558
816.877	311.212
817.005	262.385
817.133	250.692
817.262	249.433
817.390	241.212
817.518	251.962
817.646	237.577
817.774	233.346
817.902	234.769
818.030	234.827
818.158	245.442
818.287	241.490
818.415	240.779
818.543	236.817
818.671	242.510
818.799	238.712
818.927	230.317
819.055	260.404
819.183	238.125
819.312	257.442
819.440	238.413
819.568	232.413
819.696	234.962
819.824	238.615
819.952	236.558
820.080	235.538
820.208	236.769
820.337	235.192
820.465	235.308
820.593	233.067
820.721	232.808
820.849	228.760
820.977	228.221
821.105	228.846
821.233	224.817
821.362	235.413
821.490	229.721
821.618	233.423
821.746	236.942
821.874	232.327
822.002	221.385
822.130	226.231
822.258	231.923
822.387	225.154
822.515	229.327
822.643	228.923
822.771	224.231
822.899	229.577
823.027	225.019
823.155	232.606
823.283	237.490
823.412	233.106
823.540	221.385
823.668	223.183
823.796	225.106
823.924	223.577
824.052	218.952
824.180	224.077
824.308	223.058
824.437	234.433
824.565	228.154
824.693	213.788
824.821	214.760
824.949	223.442
825.077	219.087
825.205	214.625
825.333	219.587
825.462	227.317
825.590	221.192
825.718	216.192
825.846	218.019
825.974	219.510
826.102	219.375
826.230	226.365
826.358	224.019
826.487	219.202
826.615	217.808
826.743	207.596
826.871	222.327
826.999	212.837
827.127	216.865
827.255	214.087
827.383	211.144
827.512	211.692
827.640	220.279
827.768	232.231
827.896	207.846
828.024	219.788
828.152	209.731
828.280	216.413
828.408	214.115
828.537	216.183
828.665	210.712
828.793	211.096
828.921	207.817
829.049	213.404
829.177	208.894
829.305	210.019
829.433	208.952
829.562	209.721
829.690	211.846
829.818	212.471
829.946	210.606
830.074	209.202
830.202	204.423
830.330	209.673
830.458	195.221
830.587	213.548
830.715	206.692
830.843	202.654
830.971	209.885
831.099	208.962
831.227	236.019
831.355	201.587
831.483	202.221
831.612	202.962
831.740	199.260
831.868	206.529
831.996	208.538
832.124	205.692
832.252	214.385
832.380	203.567
832.508	205.635
832.637	206.577
832.765	212.000
832.893	203.779
833.021	202.587
833.149	197.173
833.277	205.923
833.405	208.519
833.533	197.548
833.662	204.721
833.790	198.606
833.918	203.596
834.046	198.885
834.174	198.106
834.302	204.990
834.430	198.558
834.558	197.654
834.687	204.183
834.815	202.087
834.943	197.673
835.071	202.337
835.199	198.462
835.327	197.010
835.455	205.240
835.583	196.202
835.712	195.038
835.840	202.202
835.968	193.317
836.096	209.385
836.224	193.452
836.352	203.096
836.480	191.538
836.608	192.894
836.737	199.029
836.865	192.663
836.993	202.481
837.121	206.529
837.249	202.442
837.377	194.558
837.505	188.663
837.633	196.192
837.762	199.481
837.890	193.981
838.018	194.471
838.146	193.587
838.274	193.385
838.402	191.558
838.530	210.837
838.658	198.375
838.787	202.990
838.915	190.779
839.043	201.394
839.171	190.760
839.299	200.038
839.427	215.952
839.555	198.038
839.683	189.577
839.812	192.702
839.940	187.500
840.068	193.837
840.196	218.740
840.324	214.250
840.452	198.221
840.580	190.663
840.708	185.962
840.837	197.740
840.965	192.029
841.093	190.923
841.221	191.923
841.349	188.625
841.477	183.788
841.605	186.615
841.733	191.635
841.862	196.962
841.990	192.962
842.118	187.808
842.246	186.125
842.374	184.010
842.502	196.433
842.630	183.096
842.758	186.923
842.887	199.163
843.015	203.394
843.143	186.885
843.271	189.817
843.399	188.740
843.527	189.135
843.655	188.096
843.783	184.615
843.912	184.327
844.040	182.587
844.168	186.212
844.296	202.067
844.424	192.394
844.552	191.019
844.680	188.654
844.808	186.663
844.937	185.096
845.065	185.212
845.193	202.865
845.321	188.731
845.449	193.971
845.577	188.356
845.705	182.683
845.833	185.260
845.962	192.442
846.090	186.173
846.218	198.202
846.346	194.000
846.474	190.942
846.602	181.673
846.730	184.058
846.858	186.683
846.987	184.548
847.115	195.413
847.243	190.375
847.371	178.548
847.499	185.712
847.627	186.404
847.755	185.904
847.883	194.481
848.012	195.288
848.140	181.981
848.268	183.904
848.396	184.721
848.524	193.913
848.652	183.115
848.780	178.913
848.908	192.125
849.037	186.058
849.165	179.019
849.293	189.635
849.421	184.462
849.549	187.250
849.677	182.288
849.805	191.596
849.933	182.154
850.062	187.106
850.190	185.490
850.318	180.010
850.446	190.500
850.574	185.048
850.702	180.942
850.830	175.471
850.958	182.250
851.087	190.288
851.215	176.750
851.343	182.135
851.471	185.423
851.599	185.654
851.727	195.356
851.855	183.606
851.983	187.952
852.112	179.788
852.240	189.413
852.368	194.837
852.496	182.990
852.624	186.452
852.752	190.731
852.880	186.442
853.008	180.808
853.137	182.500
853.265	185.279
853.393	184.221
853.521	176.817
853.649	188.442
853.777	180.760
853.905	178.548
854.033	177.644
854.162	175.731
854.290	181.644
854.418	195.038
854.546	207.933
854.674	199.894
854.802	179.663
854.930	177.019
855.058	186.942
855.187	178.010
855.315	210.337
855.443	176.231
855.571	180.298
855.699	191.433
855.827	174.413
855.955	180.462
856.083	178.163
856.212	180.317
856.340	186.356
856.468	181.423
856.596	186.125
856.724	183.212
856.852	194.135
856.980	175.038
857.108	174.981
857.237	172.192
857.365	186.798
857.493	183.683
857.621	181.712
857.749	178.567
857.877	178.808
858.005	175.875
858.133	179.567
858.262	180.577
858.390	178.894
858.518	172.990
858.646	184.548
858.774	170.721
858.902	175.106
859.030	180.385
859.158	182.058
859.287	178.875
859.415	182.788
859.543	174.933
859.671	182.827
859.799	188.808
859.927	175.644
860.055	174.865
860.183	176.500
860.312	177.404
860.440	180.962
860.568	170.356
860.696	186.231
860.824	189.510
860.952	175.337
861.080	181.875
861.208	179.606
861.337	176.769
861.465	191.788
861.593	181.404
861.721	184.183
861.849	184.087
861.977	177.038
862.105	178.423
862.233	178.913
862.362	179.654
862.490	175.942
862.618	178.702
862.746	179.337
862.874	180.423
863.002	179.529
863.130	179.192
863.258	182.202
863.387	184.856
863.515	182.038
863.643	188.769
863.771	181.067
863.899	178.577
864.027	182.010
864.155	208.731
864.283	179.337
864.412	173.260
864.540	183.413
864.668	172.779
864.796	179.183
864.924	176.163
865.052	174.154
865.180	194.000
865.308	179.144
865.437	179.856
865.565	173.269
865.693	176.788
865.821	175.885
865.949	193.058
866.077	178.923
866.205	179.154
866.333	181.712
866.462	173.019
866.590	182.308
866.718	180.212
866.846	175.990
866.974	180.279
867.102	171.577
867.230	184.846
867.358	178.298
867.487	183.865
867.615	189.010
867.743	179.346
867.871	187.385
867.999	180.462
868.127	186.240
868.255	192.798
868.383	171.596
868.512	181.760
868.640	179.567
868.768	174.750
868.896	188.250
869.024	179.058
869.152	176.577
869.280	173.615
869.408	179.337
869.537	175.096
869.665	173.087
869.793	177.452
869.921	174.750
870.049	171.519
870.177	178.712
870.305	173.721
870.433	176.317
870.562	181.779
870.690	178.837
870.818	186.125
870.946	175.413
871.074	170.567
871.202	178.827
871.330	172.269
871.458	177.019
871.587	178.923
871.715	176.625
871.843	181.058
871.971	183.587
872.099	168.962
872.227	178.067
872.355	177.337
872.483	174.375
872.612	182.798
872.740	177.635
872.868	176.856
872.996	182.250
873.124	188.240
873.252	179.923
873.380	173.221
873.508	184.865
873.637	182.933
873.765	174.144
873.893	174.500
874.021	178.250
874.149	176.769
874.277	182.327
874.405	184.394
874.533	183.942
874.662	174.702
874.790	183.558
874.918	177.337
875.046	180.125
875.174	178.760
875.302	174.740
875.430	176.212
875.558	177.490
875.687	185.625
875.815	178.856
875.943	181.000
876.071	182.981
876.199	179.038
876.327	179.606
876.455	176.875
876.583	174.375
876.712	183.058
876.840	178.663
876.968	176.192
877.096	178.952
877.224	175.442
877.352	171.279
877.480	178.452
877.608	186.481
877.737	176.481
877.865	175.433
877.993	180.990
878.121	184.798
878.249	177.644
878.377	176.048
878.505	180.865
878.633	184.894
878.762	178.673
878.890	179.058
879.018	186.962
879.146	180.183
879.274	204.010
879.402	181.625
879.530	172.856
879.658	177.500
879.787	178.788
879.915	178.087
880.043	173.260
880.171	214.144
880.299	183.298
880.427	183.990
880.555	178.077
880.683	182.337
880.812	182.250
880.940	176.673
881.068	186.442
881.196	176.769
881.324	178.625
881.452	177.808
881.580	183.077
881.708	187.173
881.837	186.038
881.965	180.490
882.093	174.760
882.221	174.740
882.349	175.779
882.477	180.212
882.605	178.856
882.733	187.029
882.862	177.885
882.990	188.740
883.118	186.202
883.246	188.692
883.374	181.663
883.502	187.490
883.630	185.990
883.758	179.481
883.887	186.067
884.015	179.125
884.143	186.250
884.271	180.288
884.399	174.154
884.527	185.529
884.655	178.394
884.783	182.077
884.912	202.346
885.040	188.212
885.168	179.240
885.296	188.779
885.424	182.115
885.552	179.981
885.680	195.375
885.808	187.894
885.937	190.279
886.065	188.048
886.193	179.462
886.321	181.808
886.449	178.183
886.577	183.375
886.705	190.913
886.833	175.135
886.962	183.952
887.090	187.452
887.218	179.731
887.346	178.962
887.474	180.115
887.602	177.933
887.730	173.106
887.858	177.423
887.987	176.135
888.115	185.375
888.243	178.087
888.371	193.433
888.499	182.413
888.627	179.308
888.755	185.663
888.883	182.442
889.012	185.087
889.140	179.865
889.268	184.365
889.396	177.346
889.524	187.885
889.652	174.125
889.780	178.010
889.908	183.817
890.037	187.375
890.165	181.548
890.293	187.010
890.421	184.481
890.549	174.856
890.677	175.288
890.805	184.798
890.933	180.529
891.062	179.183
891.190	183.298
891.318	178.385
891.446	182.663
891.574	176.163
891.702	179.769
891.830	184.231
891.958	190.827
892.087	185.971
892.215	184.971
892.343	181.433
892.471	182.923
892.599	179.067
892.727	189.846
892.855	203.337
892.983	173.500
893.112	177.519
893.240	187.817
893.368	178.875
893.496	188.885
893.624	186.000
893.752	203.298
893.880	188.981
894.008	186.144
894.137	179.962
894.265	187.385
894.393	180.692
894.521	189.538
894.649	183.394
894.777	175.817
894.905	220.462
895.033	180.279
895.162	184.702
895.290	188.308
895.418	185.135
895.546	215.558
895.674	187.000
895.802	225.019
895.930	184.298
896.058	178.067
896.187	183.721
896.315	178.019
896.443	191.250
896.571	202.163
896.699	177.529
896.827	181.135
896.955	180.490
897.083	186.298
897.212	183.904
897.340	181.837
897.468	182.240
897.596	180.558
897.724	181.750
897.852	179.192
897.980	177.192
898.108	185.856
898.237	184.587
898.365	182.010
898.493	185.856
898.621	179.942
898.749	183.288
898.877	176.548
899.005	184.740
899.133	180.317
899.262	194.971
899.390	180.125
899.518	183.337
899.646	177.481
899.774	173.692
899.902	176.923
900.030	190.769
900.158	180.712
900.287	181.163
900.415	175.163
900.543	183.837
900.671	187.010
900.799	179.442
900.927	177.327
901.055	189.894
901.183	191.971
901.312	186.115
901.440	174.442
901.568	173.904
901.696	178.500
901.824	173.192
901.952	175.135
902.080	183.683
902.208	182.183
902.337	185.712
902.465	179.375
902.593	195.038
902.721	202.548
902.849	200.596
902.977	182.144
903.105	178.779
903.233	182.019
903.362	174.654
903.490	185.231
903.618	178.538
903.746	175.433
903.874	181.846
904.002	175.442
904.130	187.058
904.258	174.625
904.387	183.058
904.515	170.615
904.643	181.712
904.771	176.827
904.899	180.163
905.027	183.654
905.155	178.952
905.283	170.760
905.412	190.096
905.540	179.212
905.668	179.731
905.796	181.952
905.924	176.654
906.052	179.538
906.180	182.817
906.308	178.452
906.437	169.894
906.565	178.529
906.693	187.183
906.821	175.846
906.949	179.288
907.077	172.750
907.205	183.990
907.333	170.885
907.462	175.077
907.590	179.115
907.718	177.385
907.846	185.135
907.974	174.971
908.102	175.606
908.230	179.712
908.358	173.769
908.487	171.481
908.615	186.760
908.743	185.000
908.871	176.058
908.999	171.308
909.127	177.163
909.255	188.462
909.383	174.462
909.512	170.452
909.640	185.894
909.768	175.788
909.896	182.663
910.024	185.154
910.152	184.510
910.280	181.798
910.408	174.337
910.537	175.760
910.665	182.337
910.793	177.962
910.921	183.606
911.049	185.260
911.177	184.356
911.305	176.808
911.433	204.077
911.562	179.760
911.690	182.615
911.818	178.365
911.946	177.837
912.074	185.721
912.202	177.298
912.330	195.615
912.458	171.529
912.587	177.788
912.715	185.308
912.843	193.240
912.971	182.356
913.099	194.654
913.227	187.404
913.355	186.683
913.483	193.798
913.612	187.952
913.740	211.394
913.868	186.529
