70_100_0_Pol_at_750.00nm_cut_at_1179.00Y_01.dat
03.07.2023
10:49:38
cut middle at Y: 1179.00
top cursor: 1231 down cursor: 1127 mean of: 104 lines , 2560 datapoints
wavelength(nm)	intensity[arb. units]
585.996	36190.173
586.124	35782.019
586.252	35799.365
586.380	35936.106
586.508	36048.692
586.637	36194.529
586.765	36140.202
586.893	36268.471
587.021	36291.308
587.149	36439.885
587.277	36453.183
587.405	36489.269
587.533	36566.308
587.662	36560.452
587.790	36550.712
587.918	36601.500
588.046	36512.548
588.174	36655.404
588.302	36647.212
588.430	36688.837
588.558	36641.538
588.687	36658.942
588.815	36676.827
588.943	36636.471
589.071	36682.269
589.199	36688.317
589.327	36687.779
589.455	36708.913
589.583	36704.135
589.712	36646.096
589.840	36620.221
589.968	36676.356
590.096	36729.356
590.224	36724.962
590.352	36838.115
590.480	36765.442
590.608	36704.481
590.737	36766.077
590.865	36795.221
590.993	36641.933
591.121	36761.365
591.249	36690.115
591.377	36771.163
591.505	36810.154
591.633	36677.856
591.762	36814.962
591.890	36798.183
592.018	36852.529
592.146	36831.490
592.274	36837.471
592.402	36871.721
592.530	37034.654
592.658	36959.019
592.787	36959.606
592.915	36995.471
593.043	36994.462
593.171	37084.500
593.299	37057.981
593.427	37000.635
593.555	37091.606
593.683	37133.481
593.812	37195.067
593.940	37187.327
594.068	37225.385
594.196	37243.567
594.324	37333.029
594.452	37413.827
594.580	37409.250
594.708	37462.346
594.837	37484.683
594.965	37581.894
595.093	37529.587
595.221	37774.356
595.349	37715.183
595.477	37767.865
595.605	37818.048
595.733	37856.779
595.862	37851.288
595.990	37919.625
596.118	37931.346
596.246	38002.923
596.374	37951.837
596.502	38076.269
596.630	38032.212
596.758	38050.635
596.887	38143.327
597.015	38255.529
597.143	38153.096
597.271	38212.106
597.399	38343.490
597.527	38178.942
597.655	38294.856
597.783	38324.885
597.912	38236.212
598.040	38319.663
598.168	38306.375
598.296	38336.115
598.424	38409.904
598.552	38344.462
598.680	38319.510
598.808	38479.808
598.937	38409.500
599.065	38328.317
599.193	38458.048
599.321	38451.058
599.449	38348.192
599.577	38348.933
599.705	38346.269
599.833	38341.510
599.962	38288.798
600.090	38333.904
600.218	38324.500
600.346	38321.865
600.474	38341.365
600.602	38305.865
600.730	38353.096
600.858	38399.981
600.987	38438.971
601.115	38324.702
601.243	38446.144
601.371	38469.365
601.499	38471.019
601.627	38566.154
601.755	38509.346
601.883	38550.673
602.012	38487.606
602.140	38548.721
602.268	38552.596
602.396	38730.308
602.524	38704.250
602.652	38821.750
602.780	38784.923
602.908	38833.625
603.037	38961.606
603.165	39042.288
603.293	39053.942
603.421	39060.683
603.549	39100.654
603.677	39198.952
603.805	39325.538
603.933	39365.673
604.062	39503.538
604.190	39534.731
604.318	39563.269
604.446	39645.250
604.574	39730.683
604.702	39799.192
604.830	39882.115
604.958	39900.375
605.087	40007.029
605.215	40194.683
605.343	40224.471
605.471	40186.433
605.599	40232.952
605.727	40383.442
605.855	40487.144
605.983	40580.538
606.112	40622.471
606.240	40669.269
606.368	40693.260
606.496	40634.077
606.624	40834.365
606.752	40791.731
606.880	40893.000
607.008	40911.750
607.137	40926.962
607.265	41051.356
607.393	41102.077
607.521	41090.913
607.649	41090.010
607.777	41066.933
607.905	41128.067
608.033	41210.548
608.162	41153.538
608.290	41168.125
608.418	41338.933
608.546	41309.663
608.674	41311.365
608.802	41256.452
608.930	41318.817
609.058	41371.817
609.187	41332.625
609.315	41321.173
609.443	41336.490
609.571	41347.913
609.699	41351.663
609.827	41437.731
609.955	41330.365
610.083	41304.423
610.212	41334.125
610.340	41302.048
610.468	41350.760
610.596	41352.298
610.724	41417.346
610.852	41412.779
610.980	41400.712
611.108	41419.452
611.237	41453.125
611.365	41450.038
611.493	41465.769
611.621	41420.327
611.749	41475.125
611.877	41551.856
612.005	41520.654
612.133	41551.577
612.262	41686.587
612.390	41654.375
612.518	41712.240
612.646	41667.606
612.774	41839.913
612.902	41861.952
613.030	41908.212
613.158	41871.625
613.287	41967.077
613.415	41948.990
613.543	42003.144
613.671	42038.933
613.799	42134.183
613.927	42195.779
614.055	42235.269
614.183	42327.260
614.312	42324.933
614.440	42357.423
614.568	42426.433
614.696	42539.654
614.824	42493.442
614.952	42635.096
615.080	42664.865
615.208	42833.212
615.337	42941.673
615.465	42886.933
615.593	43007.856
615.721	42964.712
615.849	43123.308
615.977	43129.029
616.105	43189.827
616.233	43274.962
616.362	43398.510
616.490	43407.317
616.618	43499.144
616.746	43600.317
616.874	43593.904
617.002	43686.327
617.130	43690.952
617.258	43747.096
617.387	43741.885
617.515	43863.423
617.643	43864.625
617.771	43918.173
617.899	43962.635
618.027	44095.558
618.155	44099.875
618.283	44087.606
618.412	44158.760
618.540	44319.279
618.668	44272.471
618.796	44262.913
618.924	44259.058
619.052	44363.827
619.180	44330.010
619.308	44360.375
619.437	44323.673
619.565	44351.298
619.693	44379.952
619.821	44464.269
619.949	44576.135
620.077	44556.288
620.205	44477.250
620.333	44552.663
620.462	44606.423
620.590	44586.288
620.718	44632.106
620.846	44709.971
620.974	44618.212
621.102	44749.231
621.230	44718.721
621.358	44847.788
621.487	44849.394
621.615	44771.317
621.743	44723.942
621.871	44827.144
621.999	44846.587
622.127	44792.952
622.255	44853.837
622.383	44777.644
622.512	44826.404
622.640	44869.423
622.768	44984.567
622.896	44972.654
623.024	44955.683
623.152	44919.962
623.280	45031.587
623.408	45135.702
623.537	45105.635
623.665	45036.731
623.793	45136.269
623.921	45015.115
624.049	45117.654
624.177	45184.212
624.305	45213.337
624.433	45117.904
624.562	45204.192
624.690	45286.596
624.818	45140.019
624.946	45204.990
625.074	45230.548
625.202	45192.865
625.330	45282.125
625.458	45366.250
625.587	45374.346
625.715	45392.038
625.843	45323.519
625.971	45435.106
626.099	45395.144
626.227	45485.760
626.355	45358.298
626.483	45474.663
626.612	45544.154
626.740	45654.327
626.868	45573.837
626.996	45649.135
627.124	45651.923
627.252	45646.212
627.380	45771.750
627.508	45753.548
627.637	45772.519
627.765	45882.635
627.893	45857.231
628.021	45910.654
628.149	45999.567
628.277	45961.317
628.405	45956.356
628.533	45986.740
628.662	46093.923
628.790	46214.865
628.918	46199.779
629.046	46336.087
629.174	46249.462
629.302	46306.087
629.430	46327.952
629.558	46431.490
629.687	46460.712
629.815	46509.683
629.943	46655.394
630.071	46497.240
630.199	46643.529
630.327	46739.269
630.455	46761.760
630.583	46794.750
630.712	46845.144
630.840	46954.798
630.968	46976.615
631.096	47069.529
631.224	47091.260
631.352	47207.471
631.480	47110.404
631.608	47305.981
631.737	47265.875
631.865	47376.192
631.993	47406.654
632.121	47502.760
632.249	47520.712
632.377	47449.385
632.505	47597.779
632.633	47661.413
632.762	47583.096
632.890	47677.683
633.018	47619.942
633.146	47651.260
633.274	47663.462
633.402	47739.663
633.530	47776.885
633.658	47811.577
633.787	47849.548
633.915	47827.413
634.043	47913.692
634.171	47915.240
634.299	47929.019
634.427	47998.923
634.555	48131.529
634.683	47955.971
634.812	48014.827
634.940	47903.058
635.068	47914.788
635.196	47952.481
635.324	48025.644
635.452	47939.163
635.580	48074.240
635.708	48015.558
635.837	48055.240
635.965	47961.760
636.093	48016.673
636.221	47912.817
636.349	47901.529
636.477	47821.731
636.605	47914.019
636.733	47840.356
636.862	47856.212
636.990	47813.750
637.118	47731.606
637.246	47780.029
637.374	47876.058
637.502	47710.529
637.630	47675.587
637.758	47647.096
637.887	47632.913
638.015	47765.635
638.143	47696.798
638.271	47505.442
638.399	47666.481
638.527	47575.375
638.655	47537.471
638.783	47500.769
638.912	47576.240
639.040	47410.644
639.168	47339.529
639.296	47370.413
639.424	47466.260
639.552	47316.596
639.680	47416.471
639.808	47344.250
639.937	47353.087
640.065	47360.221
640.193	47367.913
640.321	47437.327
640.449	47477.942
640.577	47418.548
640.705	47392.010
640.833	47415.692
640.962	47482.971
641.090	47387.683
641.218	47427.817
641.346	47516.452
641.474	47490.587
641.602	47476.904
641.730	47517.490
641.858	47411.981
641.987	47505.010
642.115	47747.365
642.243	47563.442
642.371	47658.327
642.499	47460.144
642.627	47668.933
642.755	47603.952
642.883	47675.721
643.012	47708.875
643.140	47717.327
643.268	47732.462
643.396	47782.356
643.524	47748.510
643.652	47858.394
643.780	47831.692
643.908	47914.529
644.037	48012.173
644.165	47954.462
644.293	48023.317
644.421	47868.885
644.549	48028.529
644.677	47946.769
644.805	47984.654
644.933	47985.981
645.062	47984.904
645.190	48168.548
645.318	48139.798
645.446	48135.885
645.574	48131.885
645.702	48143.529
645.830	48108.298
645.958	48023.240
646.087	48049.269
646.215	48085.519
646.343	48078.779
646.471	48269.875
646.599	48112.115
646.727	48105.875
646.855	48125.192
646.983	48098.327
647.112	48186.779
647.240	48090.048
647.368	48157.490
647.496	48155.577
647.624	48094.000
647.752	48048.529
647.880	48115.481
648.008	48121.750
648.137	48163.183
648.265	48101.240
648.393	48162.452
648.521	48066.856
648.649	48092.269
648.777	48002.346
648.905	48000.077
649.033	48029.856
649.162	47913.163
649.290	47804.356
649.418	47883.933
649.546	47941.192
649.674	47781.346
649.802	47794.913
649.930	47753.010
650.058	47740.904
650.187	47657.260
650.315	47574.923
650.443	47622.038
650.571	47458.692
650.699	47551.337
650.827	47475.423
650.955	47368.452
651.083	47420.404
651.212	47343.404
651.340	47326.144
651.468	47292.279
651.596	47253.298
651.724	47267.644
651.852	47219.260
651.980	47124.413
652.108	47025.375
652.237	47071.702
652.365	46966.308
652.493	46954.442
652.621	46891.106
652.749	46873.635
652.877	46813.087
653.005	46812.731
653.133	46765.375
653.262	46684.038
653.390	46548.904
653.518	46687.817
653.646	46529.212
653.774	46482.481
653.902	46490.500
654.030	46409.288
654.158	46401.365
654.287	46366.548
654.415	46271.010
654.543	46424.942
654.671	46298.433
654.799	46177.058
654.927	46148.529
655.055	46036.490
655.183	46097.692
655.312	46035.327
655.440	45962.250
655.568	45964.163
655.696	45912.240
655.824	45913.067
655.952	45866.942
656.080	45818.635
656.208	45835.308
656.337	45815.837
656.465	45842.173
656.593	45612.221
656.721	45732.500
656.849	45711.519
656.977	45450.644
657.105	45521.971
657.233	45372.808
657.362	45494.856
657.490	45485.500
657.618	45449.769
657.746	45364.240
657.874	45161.721
658.002	45074.837
658.130	44873.644
658.258	44852.327
658.387	44837.173
658.515	44830.635
658.643	44783.760
658.771	44759.587
658.899	44712.923
659.027	44671.000
659.155	44649.048
659.283	44539.298
659.412	44522.615
659.540	44552.683
659.668	44540.923
659.796	44554.327
659.924	44510.587
660.052	44605.529
660.180	44616.308
660.308	44588.721
660.437	44626.702
660.565	44453.567
660.693	44323.346
660.821	44302.654
660.949	44149.231
661.077	44171.788
661.205	44311.423
661.333	44111.404
661.462	44061.942
661.590	44060.269
661.718	43947.337
661.846	43987.875
661.974	43873.827
662.102	43898.394
662.230	43838.529
662.358	43665.856
662.487	43757.894
662.615	43699.529
662.743	43643.529
662.871	43614.971
662.999	43534.692
663.127	43474.721
663.255	43451.635
663.383	43483.856
663.512	43340.683
663.640	43309.702
663.768	43430.577
663.896	43283.375
664.024	43245.981
664.152	43175.413
664.280	43248.885
664.408	43118.192
664.537	43076.538
664.665	43021.510
664.793	42938.240
664.921	43026.308
665.049	43005.615
665.177	42865.606
665.305	42895.635
665.433	42851.673
665.562	42883.365
665.690	42700.587
665.818	42837.048
665.946	42618.683
666.074	42549.173
666.202	42541.337
666.330	42565.308
666.458	42600.981
666.587	42512.029
666.715	42415.625
666.843	42351.154
666.971	42305.087
667.099	42329.240
667.227	42309.423
667.355	42272.221
667.483	42219.827
667.612	42237.798
667.740	42102.567
667.868	42107.058
667.996	42017.154
668.124	41991.817
668.252	42077.346
668.380	41900.250
668.508	41917.683
668.637	41796.942
668.765	41728.135
668.893	41684.231
669.021	41604.904
669.149	41559.760
669.277	41610.596
669.405	41561.510
669.533	41559.663
669.662	41392.029
669.790	41339.529
669.918	41334.635
670.046	41379.712
670.174	41207.250
670.302	41112.615
670.430	41014.250
670.558	41065.413
670.687	41069.202
670.815	40905.990
670.943	40824.471
671.071	40756.490
671.199	40641.538
671.327	40653.885
671.455	40593.606
671.583	40493.904
671.712	40440.817
671.840	40391.048
671.968	40409.221
672.096	40299.644
672.224	40192.529
672.352	40108.500
672.480	40019.577
672.608	39999.635
672.737	39874.308
672.865	39846.952
672.993	39646.654
673.121	39600.731
673.249	39537.635
673.377	39434.231
673.505	39401.817
673.633	39370.548
673.762	39288.798
673.890	39165.606
674.018	39160.712
674.146	39034.077
674.274	39022.202
674.402	38937.904
674.530	38878.231
674.658	38792.048
674.787	38708.587
674.915	38729.548
675.043	38520.683
675.171	38402.817
675.299	38354.635
675.427	38237.817
675.555	38258.510
675.683	38123.221
675.812	38000.010
675.940	37987.615
676.068	37878.712
676.196	37834.202
676.324	37723.962
676.452	37610.240
676.580	37525.288
676.708	37507.952
676.837	37364.231
676.965	37338.087
677.093	37344.462
677.221	37068.096
677.349	36954.587
677.477	36972.202
677.605	36853.615
677.733	36785.250
677.862	36731.202
677.990	36650.433
678.118	36545.279
678.246	36493.077
678.374	36438.327
678.502	36228.615
678.630	36269.115
678.758	36177.010
678.887	36226.865
679.015	35954.087
679.143	35890.981
679.271	35796.962
679.399	35740.365
679.527	35628.260
679.655	35684.413
679.783	35564.452
679.912	35432.202
680.040	35494.740
680.168	35334.510
680.296	35223.423
680.424	35186.567
680.552	35089.817
680.680	34958.702
680.808	34914.452
680.937	34843.279
681.065	34808.635
681.193	34725.413
681.321	34638.567
681.449	34628.490
681.577	34482.933
681.705	34547.087
681.833	34409.510
681.962	34312.587
682.090	34254.192
682.218	34176.538
682.346	34117.135
682.474	34049.625
682.602	34008.625
682.730	33955.317
682.858	33851.865
682.987	33797.625
683.115	33769.346
683.243	33703.538
683.371	33680.106
683.499	33580.548
683.627	33551.962
683.755	33437.952
683.883	33353.740
684.012	33339.587
684.140	33218.394
684.268	33294.413
684.396	33222.212
684.524	33118.240
684.652	33069.885
684.780	33027.154
684.908	32990.904
685.037	32935.471
685.165	32915.808
685.293	32836.615
685.421	32799.885
685.549	32765.202
685.677	32633.154
685.805	32636.577
685.933	32491.702
686.062	32504.471
686.190	32361.288
686.318	32339.183
686.446	32156.788
686.574	32251.865
686.702	32207.510
686.830	32112.077
686.958	32105.971
687.087	31959.615
687.215	32006.327
687.343	31904.346
687.471	31992.010
687.599	31712.077
687.727	31663.894
687.855	31601.250
687.983	31551.231
688.112	31561.779
688.240	31469.183
688.368	31452.404
688.496	31316.971
688.624	31286.933
688.752	31332.615
688.880	31173.779
689.008	31063.327
689.137	30965.913
689.265	30886.894
689.393	30861.952
689.521	30773.894
689.649	30842.471
689.777	30755.875
689.905	30680.135
690.033	30506.933
690.162	30425.683
690.290	30458.163
690.418	30340.192
690.546	30272.519
690.674	30212.904
690.802	30201.827
690.930	30087.404
691.058	30025.885
691.187	29885.288
691.315	29832.183
691.443	29745.856
691.571	29697.356
691.699	29570.769
691.827	29501.837
691.955	29386.173
692.083	29449.413
692.212	29365.048
692.340	29248.606
692.468	29201.933
692.596	29078.269
692.724	28984.346
692.852	29007.442
692.980	28899.115
693.108	28842.279
693.237	28756.538
693.365	28545.173
693.493	28538.519
693.621	28484.529
693.749	28373.135
693.877	28318.067
694.005	28167.317
694.133	28017.298
694.262	28037.625
694.390	27892.183
694.518	27885.058
694.646	27760.635
694.774	27712.106
694.902	27575.683
695.030	27501.952
695.158	27472.067
695.287	27455.173
695.415	27248.067
695.543	27217.942
695.671	27086.385
695.799	27085.288
695.927	26937.779
696.055	26865.279
696.183	26708.231
696.312	26823.365
696.440	26645.894
696.568	26561.904
696.696	26440.471
696.824	26304.644
696.952	26218.365
697.080	26221.827
697.208	26080.971
697.337	25935.952
697.465	25904.298
697.593	25744.740
697.721	25787.740
697.849	25603.394
697.977	25570.385
698.105	25572.413
698.233	25478.529
698.362	25313.481
698.490	25312.846
698.618	25112.337
698.746	25112.250
698.874	25053.250
699.002	24922.000
699.130	24894.644
699.258	24803.067
699.387	24634.279
699.515	24655.663
699.643	24566.567
699.771	24556.702
699.899	24342.317
700.027	24265.375
700.155	24229.375
700.283	24006.894
700.412	24069.519
700.540	24013.154
700.668	23903.087
700.796	23776.635
700.924	23719.202
701.052	23694.163
701.180	23591.077
701.308	23447.462
701.437	23366.231
701.565	23329.288
701.693	23259.683
701.821	23363.019
701.949	23079.087
702.077	23023.625
702.205	23040.596
702.333	22892.221
702.462	22728.481
702.590	22697.413
702.718	22611.856
702.846	22629.673
702.974	22440.048
703.102	22317.327
703.230	22266.269
703.358	22207.346
703.487	22085.606
703.615	22018.423
703.743	21947.115
703.871	21843.712
703.999	21817.125
704.127	21664.452
704.255	21610.837
704.383	21484.144
704.512	21492.356
704.640	21386.125
704.768	21413.615
704.896	21187.567
705.024	21071.298
705.152	21069.827
705.280	21008.942
705.408	20919.731
705.537	20731.346
705.665	20680.971
705.793	20566.644
705.921	20475.067
706.049	20413.635
706.177	20278.394
706.305	20267.740
706.433	20216.817
706.562	20095.212
706.690	20029.087
706.818	19967.096
706.946	19846.875
707.074	19727.712
707.202	19652.923
707.330	19625.846
707.458	19523.000
707.587	19456.471
707.715	19341.231
707.843	19376.365
707.971	19305.394
708.099	19120.183
708.227	19034.548
708.355	18930.240
708.483	18904.635
708.612	18882.952
708.740	18704.846
708.868	18638.240
708.996	18634.019
709.124	18536.096
709.252	18442.625
709.380	18451.567
709.508	18312.144
709.637	18272.154
709.765	18235.298
709.893	18117.846
710.021	17990.990
710.149	18034.952
710.277	17876.788
710.405	17797.769
710.533	17771.885
710.662	17664.567
710.790	17697.587
710.918	17526.817
711.046	17559.606
711.174	17375.673
711.302	17434.846
711.430	17259.462
711.558	17275.192
711.687	17141.413
711.815	17068.106
711.943	17013.913
712.071	16945.913
712.199	16947.673
712.327	16930.250
712.455	16779.712
712.583	16838.596
712.712	16673.038
712.840	16588.288
712.968	16468.990
713.096	16430.038
713.224	16403.058
713.352	16247.462
713.480	16237.375
713.608	16120.106
713.737	16145.731
713.865	16067.760
713.993	15931.865
714.121	15933.077
714.249	15899.827
714.377	15737.837
714.505	15689.587
714.633	15653.846
714.762	15607.183
714.890	15493.904
715.018	15481.529
715.146	15477.692
715.274	15386.971
715.402	15274.740
715.530	15200.375
715.658	15178.856
715.787	15138.404
715.915	15082.346
716.043	14973.971
716.171	15098.538
716.299	14868.375
716.427	14863.106
716.555	14768.942
716.683	14729.269
716.812	14661.558
716.940	14529.548
717.068	14510.250
717.196	14659.279
717.324	14440.394
717.452	14362.096
717.580	14376.702
717.708	14168.337
717.837	14144.635
717.965	14110.577
718.093	14018.087
718.221	14015.413
718.349	13996.327
718.477	13857.375
718.605	13912.452
718.733	13805.942
718.862	13771.558
718.990	13612.923
719.118	13615.365
719.246	13487.663
719.374	13432.913
719.502	13435.538
719.630	13507.538
719.758	13277.144
719.887	13193.096
720.015	13180.558
720.143	13160.346
720.271	13036.837
720.399	13039.183
720.527	12940.250
720.655	12996.317
720.783	12807.000
720.912	12762.885
721.040	12678.712
721.168	12648.385
721.296	12570.606
721.424	12483.029
721.552	12470.067
721.680	12458.183
721.808	12370.269
721.937	12291.971
722.065	12298.654
722.193	12181.250
722.321	12088.856
722.449	12116.490
722.577	11961.654
722.705	11934.154
722.833	11915.115
722.962	11880.702
723.090	11748.404
723.218	11737.933
723.346	11748.808
723.474	11583.423
723.602	11521.433
723.730	11479.942
723.858	11426.202
723.987	11405.029
724.115	11326.779
724.243	11318.163
724.371	11234.038
724.499	11158.173
724.627	11105.962
724.755	10994.106
724.883	11033.885
725.012	11088.740
725.140	10864.606
725.268	10786.077
725.396	10825.413
725.524	10801.923
725.652	10578.067
725.780	10674.462
725.908	10467.077
726.037	10437.231
726.165	10445.519
726.293	10294.894
726.421	10257.135
726.549	10241.106
726.677	10139.587
726.805	10077.125
726.933	10069.010
727.062	9980.596
727.190	9948.673
727.318	9854.087
727.446	9858.952
727.574	9761.827
727.702	9733.962
727.830	9727.933
727.958	9661.442
728.087	9691.529
728.215	9676.596
728.343	9526.548
728.471	9460.981
728.599	9564.029
728.727	9343.644
728.855	9329.462
728.983	9253.038
729.112	9225.606
729.240	9094.442
729.368	9071.221
729.496	9034.240
729.624	9000.933
729.752	8947.942
729.880	8844.192
730.008	8826.077
730.137	8725.644
730.265	8591.433
730.393	8639.250
730.521	8548.875
730.649	8300.115
730.777	8225.635
730.905	8214.567
731.033	8166.433
731.162	8269.635
731.290	8237.731
731.418	8147.462
731.546	8151.173
731.674	8095.990
731.802	8038.327
731.930	8134.952
732.058	8131.423
732.187	8060.519
732.315	8050.240
732.443	8160.346
732.571	8093.587
732.699	8069.933
732.827	8062.923
732.955	7976.154
733.083	7884.038
733.212	7859.000
733.340	7705.798
733.468	7687.404
733.596	7680.221
733.724	7637.952
733.852	7642.750
733.980	7599.000
734.108	7705.067
734.237	7501.567
734.365	7484.144
734.493	7426.663
734.621	7394.337
734.749	7343.010
734.877	7324.538
735.005	7265.356
735.133	7201.606
735.262	7265.846
735.390	7139.298
735.518	7104.971
735.646	7167.846
735.774	7105.433
735.902	7117.452
736.030	6979.385
736.158	6962.192
736.287	6943.779
736.415	6884.077
736.543	6843.183
736.671	6797.106
736.799	6804.788
736.927	6773.942
737.055	6845.154
737.183	6690.221
737.312	6653.644
737.440	6650.875
737.568	6683.490
737.696	6614.981
737.824	6544.096
737.952	6746.740
738.080	6448.971
738.208	6499.202
738.337	6417.385
738.465	6400.212
738.593	6351.231
738.721	6339.462
738.849	6359.577
738.977	6258.606
739.105	6242.538
739.233	6213.442
739.362	6152.346
739.490	6131.375
739.618	6134.760
739.746	6090.644
739.874	6004.433
740.002	6023.163
740.130	5977.837
740.258	5909.519
740.387	5960.404
740.515	5892.558
740.643	5855.971
740.771	5927.308
740.899	5769.279
741.027	5709.942
741.155	5700.000
741.283	5675.462
741.412	5765.625
741.540	5682.740
741.668	5619.173
741.796	5663.433
741.924	5558.404
742.052	5680.442
742.180	5505.798
742.308	5421.279
742.437	5468.154
742.565	5384.962
742.693	5499.115
742.821	5338.038
742.949	5284.625
743.077	5323.231
743.205	5210.990
743.333	5238.548
743.462	5221.654
743.590	5180.962
743.718	5155.452
743.846	5107.740
743.974	5145.490
744.102	5052.779
744.230	5081.923
744.358	5007.913
744.487	4965.702
744.615	4946.644
744.743	4919.923
744.871	4877.298
744.999	4945.942
745.127	4848.394
745.255	4795.596
745.383	4843.798
745.512	4755.163
745.640	4730.856
745.768	4727.433
745.896	4759.413
746.024	4702.692
746.152	4631.740
746.280	4675.346
746.408	4597.202
746.537	4631.827
746.665	4571.788
746.793	4503.163
746.921	4502.019
747.049	4509.308
747.177	4439.510
747.305	4602.356
747.433	4403.529
747.562	4370.365
747.690	4383.317
747.818	4414.885
747.946	4282.298
748.074	4279.971
748.202	4275.125
748.330	4227.192
748.458	4215.221
748.587	4177.212
748.715	4220.673
748.843	4116.279
748.971	4106.606
749.099	4120.115
749.227	4097.952
749.355	4104.029
749.483	4018.433
749.612	4083.712
749.740	4013.394
749.868	3970.490
749.996	3995.981
750.124	3999.298
750.252	3936.413
750.380	3921.798
750.508	3873.856
750.637	3828.221
750.765	3972.000
750.893	3813.029
751.021	3744.721
751.149	3798.788
751.277	3782.885
751.405	3741.462
751.533	3707.067
751.662	3648.375
751.790	3810.962
751.918	3637.558
752.046	3623.269
752.174	3629.885
752.302	3578.183
752.430	3561.048
752.558	3551.731
752.687	3500.038
752.815	3577.317
752.943	3471.087
753.071	3440.971
753.199	3444.971
753.327	3433.385
753.455	3358.413
753.583	3474.827
753.712	3364.135
753.840	3351.567
753.968	3331.779
754.096	3295.490
754.224	3317.096
754.352	3294.337
754.480	3295.423
754.608	3268.923
754.737	3254.663
754.865	3209.038
754.993	3271.202
755.121	3267.308
755.249	3297.971
755.377	3099.423
755.505	3183.731
755.633	3213.654
755.762	3070.615
755.890	3102.596
756.018	3061.269
756.146	3046.567
756.274	3047.154
756.402	3029.356
756.530	3006.577
756.658	2997.163
756.787	2969.913
756.915	2939.731
757.043	2936.298
757.171	2930.981
757.299	2967.240
757.427	2889.990
757.555	2886.029
757.683	2882.183
757.812	2858.596
757.940	2836.721
758.068	2815.308
758.196	2815.558
758.324	2796.808
758.452	2784.933
758.580	2772.846
758.708	2755.827
758.837	2764.885
758.965	2736.404
759.093	2716.990
759.221	2665.298
759.349	2648.067
759.477	2659.904
759.605	2630.663
759.733	2633.731
759.862	2596.567
759.990	2592.827
760.118	2587.404
760.246	2588.433
760.374	2569.346
760.502	2530.471
760.630	2523.856
760.758	2517.308
760.887	2497.654
761.015	2471.990
761.143	2473.192
761.271	2457.144
761.399	2440.260
761.527	2419.000
761.655	2418.673
761.783	2386.317
761.912	2383.529
762.040	2387.750
762.168	2332.375
762.296	2342.663
762.424	2339.471
762.552	2325.308
762.680	2274.058
762.808	2296.635
762.937	2277.106
763.065	2241.538
763.193	2240.433
763.321	2238.135
763.449	2210.500
763.577	2194.240
763.705	2200.865
763.833	2188.615
763.962	2159.308
764.090	2155.087
764.218	2124.769
764.346	2125.702
764.474	2130.000
764.602	2082.615
764.730	2095.577
764.858	2072.038
764.987	2070.096
765.115	2043.337
765.243	2017.394
765.371	2025.712
765.499	2020.952
765.627	2014.298
765.755	1998.038
765.883	1970.596
766.012	1966.096
766.140	1953.827
766.268	1939.365
766.396	1934.019
766.524	1930.885
766.652	1908.962
766.780	1904.769
766.908	1896.269
767.037	1904.692
767.165	1879.135
767.293	1872.683
767.421	1865.481
767.549	1846.558
767.677	1859.433
767.805	1832.538
767.933	1806.913
768.062	1809.288
768.190	1784.490
768.318	1790.308
768.446	1766.606
768.574	1772.462
768.702	1770.558
768.830	1747.337
768.958	1725.240
769.087	1743.971
769.215	1716.240
769.343	1702.490
769.471	1716.865
769.599	1710.058
769.727	1705.298
769.855	1679.202
769.983	1709.529
770.112	1673.327
770.240	1649.817
770.368	1648.538
770.496	1620.731
770.624	1633.471
770.752	1634.163
770.880	1646.933
771.008	1598.558
771.137	1602.462
771.265	1577.808
771.393	1567.712
771.521	1572.875
771.649	1591.702
771.777	1601.423
771.905	1609.875
772.033	1577.538
772.162	1538.096
772.290	1531.346
772.418	1522.442
772.546	1521.519
772.674	1514.260
772.802	1498.913
772.930	1515.288
773.058	1481.615
773.187	1474.856
773.315	1470.154
773.443	1454.462
773.571	1458.433
773.699	1453.163
773.827	1460.413
773.955	1463.846
774.083	1443.183
774.212	1423.519
774.340	1420.500
774.468	1405.865
774.596	1403.692
774.724	1412.404
774.852	1408.519
774.980	1401.462
775.108	1377.212
775.237	1370.471
775.365	1363.221
775.493	1364.385
775.621	1351.298
775.749	1358.942
775.877	1364.077
776.005	1344.692
776.133	1333.990
776.262	1325.375
776.390	1312.452
776.518	1297.067
776.646	1320.250
776.774	1307.481
776.902	1296.721
777.030	1292.558
777.158	1281.317
777.287	1296.971
777.415	1268.221
777.543	1283.856
777.671	1268.462
777.799	1256.663
777.927	1248.625
778.055	1251.875
778.183	1254.538
778.312	1246.192
778.440	1242.529
778.568	1253.471
778.696	1239.298
778.824	1231.654
778.952	1222.596
779.080	1209.385
779.208	1207.125
779.337	1208.981
779.465	1206.548
779.593	1188.808
779.721	1196.721
779.849	1181.433
779.977	1171.202
780.105	1166.375
780.233	1170.856
780.362	1158.173
780.490	1143.567
780.618	1160.827
780.746	1148.356
780.874	1142.558
781.002	1134.894
781.130	1128.096
781.258	1123.308
781.387	1130.913
781.515	1120.654
781.643	1104.442
781.771	1108.856
781.899	1117.981
782.027	1100.846
782.155	1094.615
782.283	1077.404
782.412	1093.413
782.540	1093.615
782.668	1081.663
782.796	1072.298
782.924	1078.615
783.052	1068.606
783.180	1055.154
783.308	1059.067
783.437	1055.471
783.565	1065.740
783.693	1056.529
783.821	1046.971
783.949	1039.577
784.077	1032.115
784.205	1035.510
784.333	1023.452
784.462	1026.654
784.590	1015.433
784.718	1002.673
784.846	1004.413
784.974	1017.115
785.102	987.385
785.230	1004.663
785.358	977.144
785.487	986.731
785.615	982.317
785.743	973.846
785.871	985.404
785.999	974.692
786.127	972.202
786.255	953.106
786.383	960.644
786.512	953.327
786.640	952.221
786.768	936.827
786.896	947.712
787.024	934.231
787.152	920.135
787.280	948.788
787.408	924.981
787.537	931.933
787.665	934.385
787.793	911.106
787.921	910.413
788.049	902.692
788.177	909.163
788.305	904.750
788.433	898.779
788.562	886.212
788.690	887.904
788.818	893.837
788.946	884.731
789.074	878.769
789.202	878.317
789.330	869.817
789.458	867.048
789.587	865.135
789.715	877.625
789.843	866.135
789.971	858.106
790.099	845.731
790.227	854.962
790.355	847.337
790.483	852.558
790.612	841.000
790.740	846.260
790.868	840.971
790.996	845.904
791.124	846.240
791.252	844.115
791.380	815.317
791.508	825.798
791.637	823.712
791.765	816.173
791.893	817.769
792.021	822.769
792.149	802.346
792.277	808.933
792.405	792.337
792.533	806.981
792.662	794.702
792.790	792.587
792.918	808.154
793.046	783.010
793.174	788.615
793.302	781.519
793.430	779.779
793.558	789.029
793.687	778.058
793.815	762.875
793.943	775.548
794.071	762.125
794.199	770.058
794.327	749.135
794.455	764.067
794.583	755.471
794.712	745.240
794.840	746.500
794.968	743.029
795.096	761.269
795.224	724.500
795.352	783.442
795.480	726.087
795.608	731.077
795.737	722.548
795.865	728.183
795.993	726.115
796.121	714.202
796.249	714.375
796.377	723.144
796.505	717.096
796.633	708.990
796.762	709.673
796.890	697.365
797.018	702.452
797.146	701.135
797.274	698.442
797.402	694.221
797.530	682.423
797.658	685.654
797.787	706.577
797.915	691.279
798.043	673.154
798.171	688.933
798.299	669.769
798.427	679.096
798.555	683.856
798.683	667.221
798.812	699.471
798.940	708.837
799.068	692.317
799.196	667.356
799.324	664.577
799.452	643.721
799.580	652.962
799.708	647.856
799.837	643.673
799.965	642.913
800.093	640.442
800.221	641.462
800.349	633.337
800.477	623.625
800.605	627.048
800.733	640.606
800.862	622.654
800.990	624.712
801.118	618.356
801.246	622.567
801.374	628.260
801.502	617.510
801.630	604.933
801.758	609.548
801.887	599.115
802.015	612.067
802.143	591.856
802.271	596.365
802.399	592.260
802.527	591.106
802.655	594.923
802.783	588.654
802.912	592.798
803.040	587.115
803.168	583.173
803.296	593.308
803.424	575.490
803.552	584.087
803.680	576.981
803.808	576.183
803.937	573.317
804.065	575.260
804.193	576.308
804.321	589.308
804.449	577.221
804.577	574.712
804.705	583.971
804.833	561.202
804.962	557.404
805.090	559.404
805.218	553.962
805.346	545.048
805.474	562.423
805.602	556.894
805.730	562.317
805.858	543.308
805.987	535.962
806.115	542.731
806.243	549.038
806.371	534.298
806.499	532.202
806.627	532.452
806.755	532.788
806.883	532.769
807.012	524.394
807.140	531.269
807.268	522.760
807.396	527.394
807.524	524.577
807.652	530.077
807.780	526.760
807.908	525.067
808.037	529.375
808.165	529.000
808.293	505.923
808.421	513.115
808.549	508.413
808.677	512.154
808.805	525.962
808.933	509.490
809.062	501.279
809.190	518.510
809.318	503.760
809.446	498.471
809.574	509.144
809.702	484.288
809.830	490.817
809.958	503.010
810.087	495.125
810.215	489.990
810.343	504.827
810.471	492.183
810.599	483.885
810.727	491.933
810.855	476.663
810.983	485.981
811.112	481.817
811.240	484.481
811.368	481.731
811.496	479.788
811.624	476.894
811.752	472.625
811.880	497.288
812.008	478.356
812.137	486.288
812.265	470.106
812.393	478.596
812.521	463.596
812.649	470.240
812.777	463.538
812.905	471.760
813.033	471.587
813.162	452.856
813.290	456.625
813.418	457.635
813.546	456.500
813.674	457.913
813.802	451.808
813.930	453.048
814.058	453.279
814.187	453.471
814.315	450.038
814.443	445.750
814.571	446.625
814.699	443.250
814.827	445.038
814.955	449.462
815.083	439.990
815.212	442.481
815.340	435.529
815.468	443.279
815.596	428.038
815.724	438.827
815.852	442.635
815.980	429.298
816.108	432.173
816.237	438.048
816.365	438.702
816.493	430.346
816.621	433.913
816.749	423.385
816.877	487.125
817.005	441.260
817.133	430.933
817.262	423.462
817.390	418.904
817.518	432.942
817.646	413.038
817.774	412.365
817.902	408.817
818.030	407.587
818.158	418.529
818.287	410.077
818.415	408.587
818.543	411.740
818.671	409.279
818.799	402.692
818.927	399.279
819.055	433.510
819.183	410.048
819.312	420.750
819.440	402.000
819.568	396.240
819.696	400.942
819.824	402.452
819.952	407.337
820.080	399.144
820.208	392.115
820.337	401.173
820.465	390.231
820.593	400.125
820.721	389.212
820.849	385.587
820.977	391.413
821.105	393.231
821.233	380.279
821.362	395.038
821.490	378.308
821.618	389.038
821.746	395.923
821.874	382.913
822.002	375.837
822.130	383.644
822.258	386.567
822.387	381.654
822.515	382.837
822.643	379.337
822.771	374.933
822.899	380.356
823.027	369.981
823.155	376.596
823.283	387.471
823.412	385.587
823.540	370.471
823.668	364.510
823.796	368.404
823.924	368.596
824.052	366.769
824.180	371.269
824.308	370.346
824.437	376.913
824.565	366.260
824.693	353.192
824.821	357.644
824.949	367.596
825.077	363.875
825.205	350.154
825.333	361.183
825.462	364.942
825.590	355.683
825.718	356.788
825.846	353.683
825.974	361.808
826.102	356.221
826.230	361.163
826.358	357.000
826.487	359.654
826.615	351.317
826.743	346.471
826.871	356.375
826.999	350.106
827.127	353.856
827.255	350.471
827.383	343.837
827.512	343.731
827.640	346.462
827.768	370.077
827.896	342.567
828.024	353.750
828.152	343.606
828.280	345.413
828.408	338.962
828.537	342.394
828.665	335.279
828.793	343.202
828.921	334.029
829.049	342.067
829.177	337.000
829.305	334.894
829.433	336.865
829.562	333.760
829.690	334.385
829.818	338.346
829.946	333.067
830.074	331.962
830.202	330.288
830.330	342.471
830.458	322.375
830.587	335.606
830.715	323.760
830.843	323.192
830.971	329.365
831.099	332.337
831.227	358.423
831.355	324.837
831.483	327.212
831.612	325.327
831.740	324.760
831.868	328.317
831.996	331.038
832.124	326.750
832.252	329.058
832.380	316.942
832.508	326.000
832.637	320.538
832.765	325.144
832.893	324.519
833.021	319.240
833.149	315.317
833.277	320.548
833.405	324.404
833.533	314.558
833.662	320.308
833.790	315.298
833.918	324.529
834.046	315.673
834.174	310.375
834.302	317.462
834.430	305.779
834.558	312.212
834.687	318.096
834.815	314.308
834.943	307.173
835.071	313.529
835.199	316.404
835.327	308.721
835.455	320.269
835.583	312.327
835.712	310.192
835.840	313.038
835.968	308.135
836.096	315.394
836.224	306.471
836.352	315.260
836.480	304.038
836.608	302.654
836.737	308.115
836.865	301.038
836.993	311.673
837.121	314.548
837.249	308.317
837.377	296.529
837.505	295.288
837.633	305.096
837.762	303.827
837.890	302.971
838.018	305.394
838.146	298.269
838.274	295.904
838.402	298.135
838.530	312.106
838.658	304.317
838.787	308.798
838.915	291.558
839.043	304.615
839.171	293.798
839.299	300.942
839.427	314.990
839.555	306.269
839.683	292.433
839.812	298.529
839.940	291.567
840.068	295.269
840.196	318.923
840.324	310.952
840.452	300.760
840.580	294.038
840.708	286.490
840.837	290.712
840.965	294.471
841.093	290.192
841.221	289.538
841.349	286.577
841.477	281.038
841.605	288.375
841.733	288.356
841.862	295.740
841.990	289.712
842.118	286.769
842.246	282.529
842.374	281.240
842.502	292.144
842.630	285.904
842.758	281.942
842.887	292.154
843.015	301.096
843.143	284.231
843.271	283.788
843.399	277.952
843.527	288.683
843.655	283.356
843.783	281.442
843.912	278.404
844.040	280.462
844.168	284.712
844.296	293.260
844.424	290.077
844.552	286.385
844.680	285.471
844.808	279.250
844.937	276.731
845.065	275.529
845.193	291.760
845.321	285.683
845.449	286.202
845.577	277.404
845.705	276.452
845.833	275.615
845.962	284.327
846.090	278.317
846.218	288.971
846.346	278.913
846.474	276.904
846.602	275.135
846.730	273.481
846.858	275.654
846.987	277.115
847.115	281.404
847.243	282.933
847.371	269.385
847.499	272.760
847.627	277.433
847.755	272.827
847.883	277.106
848.012	282.760
848.140	268.183
848.268	267.673
848.396	277.692
848.524	282.923
848.652	272.106
848.780	268.933
848.908	277.058
849.037	269.394
849.165	264.923
849.293	277.625
849.421	271.558
849.549	269.788
849.677	268.673
849.805	278.250
849.933	266.154
850.062	271.067
850.190	270.779
850.318	267.221
850.446	272.769
850.574	269.769
850.702	272.106
850.830	260.452
850.958	267.904
851.087	270.779
851.215	263.125
851.343	266.115
851.471	270.769
851.599	273.567
851.727	278.356
851.855	269.010
851.983	271.394
852.112	264.394
852.240	270.240
852.368	275.712
852.496	266.279
852.624	269.029
852.752	276.673
852.880	267.240
853.008	266.192
853.137	269.981
853.265	267.971
853.393	268.288
853.521	260.240
853.649	273.981
853.777	263.760
853.905	262.606
854.033	258.221
854.162	261.038
854.290	261.663
854.418	274.096
854.546	289.279
854.674	278.375
854.802	267.471
854.930	259.615
855.058	270.135
855.187	260.798
855.315	288.990
855.443	263.981
855.571	262.163
855.699	275.990
855.827	256.212
855.955	258.096
856.083	258.663
856.212	261.481
856.340	267.346
856.468	265.683
856.596	259.990
856.724	264.413
856.852	273.981
856.980	256.760
857.108	255.923
857.237	253.000
857.365	268.635
857.493	266.038
857.621	257.500
857.749	256.625
857.877	253.183
858.005	258.144
858.133	257.952
858.262	256.010
858.390	257.317
858.518	257.875
858.646	262.356
858.774	252.192
858.902	256.654
859.030	257.010
859.158	265.058
859.287	256.625
859.415	257.962
859.543	255.087
859.671	258.913
859.799	264.962
859.927	254.837
860.055	250.731
860.183	253.308
860.312	254.798
860.440	253.308
860.568	248.010
860.696	262.913
860.824	267.606
860.952	249.212
861.080	256.606
861.208	254.125
861.337	260.183
861.465	268.173
861.593	256.298
861.721	263.231
861.849	261.529
861.977	256.231
862.105	259.154
862.233	254.510
862.362	251.038
862.490	252.856
862.618	254.471
862.746	255.990
862.874	256.904
863.002	257.462
863.130	254.779
863.258	261.087
863.387	258.692
863.515	260.308
863.643	257.644
863.771	259.423
863.899	258.721
864.027	257.221
864.155	280.683
864.283	254.615
864.412	254.269
864.540	258.029
864.668	246.788
864.796	255.404
864.924	251.663
865.052	245.846
865.180	268.894
865.308	257.077
865.437	252.625
865.565	245.942
865.693	254.173
865.821	246.067
865.949	271.452
866.077	252.183
866.205	252.010
866.333	256.606
866.462	245.788
866.590	254.731
866.718	253.894
866.846	249.654
866.974	252.625
867.102	250.971
867.230	259.606
867.358	254.192
867.487	259.817
867.615	264.221
867.743	249.750
867.871	264.692
867.999	251.923
868.127	266.308
868.255	272.096
868.383	245.058
868.512	254.163
868.640	251.702
868.768	250.356
868.896	264.606
869.024	249.183
869.152	254.317
869.280	246.413
869.408	250.702
869.537	248.567
869.665	248.962
869.793	254.510
869.921	250.067
870.049	246.731
870.177	251.173
870.305	250.144
870.433	250.115
870.562	254.538
870.690	253.337
870.818	260.606
870.946	244.231
871.074	244.221
871.202	253.712
871.330	245.596
871.458	255.702
871.587	254.769
871.715	254.288
871.843	252.894
871.971	257.404
872.099	243.846
872.227	251.067
872.355	250.317
872.483	247.894
872.612	258.010
872.740	250.548
872.868	253.260
872.996	254.875
873.124	266.702
873.252	251.663
873.380	243.471
873.508	260.067
873.637	262.673
873.765	250.404
873.893	249.760
874.021	249.212
874.149	249.231
874.277	247.298
874.405	261.500
874.533	258.462
874.662	251.192
874.790	255.538
874.918	249.010
875.046	252.827
875.174	253.221
875.302	249.837
875.430	250.038
875.558	254.394
875.687	258.212
875.815	250.827
875.943	258.981
876.071	255.394
876.199	257.404
876.327	255.990
876.455	255.404
876.583	248.779
876.712	260.452
876.840	253.163
876.968	252.596
877.096	252.096
877.224	254.625
877.352	243.837
877.480	256.067
877.608	263.385
877.737	259.567
877.865	247.375
877.993	258.971
878.121	261.442
878.249	254.875
878.377	250.548
878.505	257.413
878.633	256.788
878.762	251.337
878.890	251.548
879.018	262.490
879.146	252.192
879.274	281.644
879.402	254.577
879.530	251.192
879.658	255.077
879.787	254.740
879.915	254.058
880.043	247.288
880.171	289.587
880.299	258.048
880.427	259.471
880.555	251.212
880.683	259.269
880.812	256.269
880.940	254.827
881.068	260.971
881.196	254.000
881.324	256.894
881.452	253.067
881.580	261.202
881.708	264.529
881.837	261.875
881.965	255.817
882.093	251.087
882.221	254.212
882.349	250.702
882.477	255.077
882.605	259.817
882.733	266.587
882.862	251.192
882.990	266.635
883.118	262.865
883.246	262.596
883.374	256.779
883.502	267.337
883.630	259.962
883.758	257.981
883.887	259.894
884.015	260.933
884.143	260.663
884.271	259.231
884.399	253.433
884.527	262.490
884.655	255.413
884.783	263.712
884.912	283.615
885.040	260.096
885.168	252.125
885.296	267.125
885.424	260.538
885.552	260.260
885.680	272.529
885.808	261.933
885.937	267.087
886.065	268.288
886.193	263.308
886.321	257.904
886.449	257.952
886.577	258.654
886.705	270.260
886.833	250.375
886.962	262.721
887.090	264.990
887.218	256.413
887.346	259.192
887.474	258.567
887.602	256.308
887.730	251.346
887.858	258.635
887.987	259.750
888.115	261.837
888.243	260.625
888.371	270.135
888.499	259.923
888.627	261.798
888.755	266.663
888.883	258.798
889.012	266.712
889.140	260.279
889.268	262.817
889.396	256.894
889.524	268.587
889.652	256.154
889.780	257.135
889.908	262.721
890.037	268.010
890.165	260.654
890.293	265.548
890.421	266.481
890.549	257.567
890.677	253.212
890.805	261.577
890.933	253.452
891.062	257.740
891.190	264.971
891.318	257.173
891.446	260.087
891.574	251.288
891.702	255.712
891.830	264.260
891.958	267.971
892.087	266.558
892.215	265.500
892.343	262.654
892.471	267.462
892.599	256.279
892.727	265.558
892.855	279.212
892.983	253.365
893.112	255.231
893.240	268.721
893.368	254.221
893.496	274.279
893.624	261.048
893.752	278.019
893.880	266.558
894.008	264.404
894.137	256.875
894.265	263.404
894.393	260.577
894.521	264.173
894.649	255.144
894.777	254.288
894.905	294.029
895.033	254.683
895.162	255.846
895.290	265.731
895.418	256.683
895.546	287.269
895.674	261.692
895.802	296.606
895.930	260.433
896.058	254.346
896.187	258.404
896.315	252.567
896.443	268.913
896.571	282.385
896.699	250.106
896.827	254.317
896.955	261.173
897.083	260.433
897.212	260.144
897.340	255.606
897.468	253.769
897.596	253.510
897.724	252.452
897.852	249.212
897.980	249.240
898.108	260.702
898.237	253.308
898.365	254.048
898.493	255.904
898.621	251.942
898.749	252.673
898.877	253.625
899.005	254.317
899.133	254.846
899.262	266.673
899.390	248.288
899.518	257.154
899.646	250.125
899.774	242.769
899.902	248.712
900.030	260.567
900.158	250.288
900.287	251.481
900.415	241.375
900.543	254.433
900.671	252.212
900.799	251.750
900.927	246.327
901.055	258.154
901.183	254.269
901.312	253.808
901.440	245.288
901.568	241.654
901.696	246.058
901.824	246.298
901.952	244.519
902.080	254.365
902.208	249.173
902.337	254.394
902.465	245.173
902.593	258.779
902.721	269.240
902.849	267.692
902.977	250.077
903.105	245.663
903.233	247.971
903.362	239.000
903.490	254.663
903.618	248.356
903.746	241.846
903.874	245.375
904.002	241.827
904.130	259.135
904.258	240.346
904.387	242.750
904.515	235.490
904.643	247.058
904.771	242.856
904.899	241.442
905.027	239.587
905.155	242.913
905.283	235.298
905.412	255.471
905.540	243.231
905.668	237.567
905.796	244.635
905.924	238.663
906.052	242.346
906.180	249.712
906.308	238.519
906.437	236.740
906.565	244.615
906.693	249.471
906.821	236.952
906.949	236.452
907.077	231.962
907.205	246.962
907.333	234.250
907.462	235.404
907.590	236.548
907.718	238.087
907.846	247.529
907.974	234.702
908.102	238.779
908.230	241.250
908.358	231.067
908.487	229.567
908.615	248.038
908.743	244.606
908.871	239.865
908.999	234.529
909.127	233.337
909.255	247.279
909.383	232.077
909.512	228.837
909.640	246.692
909.768	234.413
909.896	239.462
910.024	239.317
910.152	242.673
910.280	240.183
910.408	228.500
910.537	230.827
910.665	238.990
910.793	242.183
910.921	236.346
911.049	242.577
911.177	240.240
911.305	234.663
911.433	259.106
911.562	241.577
911.690	236.798
911.818	236.106
911.946	232.702
912.074	235.779
912.202	230.221
912.330	247.048
912.458	226.740
912.587	233.048
912.715	236.029
912.843	247.462
912.971	233.788
913.099	249.558
913.227	243.808
913.355	243.327
913.483	251.606
913.612	245.692
913.740	262.144
913.868	242.375
