90_140_wo_Pol_at_750.00nm_cut_at_1179.00Y_01.dat
03.07.2023
11:34:15
cut middle at Y: 1179.00
top cursor: 1231 down cursor: 1127 mean of: 104 lines , 2560 datapoints
wavelength(nm)	intensity[arb. units]
585.996	25507.567
586.124	25074.625
586.252	25028.885
586.380	25105.933
586.508	25210.519
586.637	25298.240
586.765	25391.615
586.893	25389.442
587.021	25468.125
587.149	25546.654
587.277	25551.183
587.405	25565.413
587.533	25757.702
587.662	25689.163
587.790	25727.231
587.918	25713.173
588.046	25691.471
588.174	25786.029
588.302	25818.510
588.430	25830.750
588.558	25821.308
588.687	25830.433
588.815	25901.837
588.943	25812.173
589.071	25831.865
589.199	25922.615
589.327	25848.962
589.455	25886.865
589.583	25862.663
589.712	25863.529
589.840	25833.327
589.968	25837.125
590.096	25896.702
590.224	25907.904
590.352	26015.308
590.480	25907.779
590.608	25823.144
590.737	25881.760
590.865	25887.202
590.993	25824.721
591.121	25879.519
591.249	25857.683
591.377	25887.269
591.505	25909.529
591.633	25847.490
591.762	25884.692
591.890	25943.221
592.018	25960.885
592.146	26039.913
592.274	25932.567
592.402	25951.644
592.530	26177.971
592.658	26105.673
592.787	26138.317
592.915	26189.442
593.043	26096.625
593.171	26229.990
593.299	26136.615
593.427	26181.327
593.555	26224.567
593.683	26295.327
593.812	26272.971
593.940	26399.952
594.068	26399.115
594.196	26406.577
594.324	26522.587
594.452	26704.452
594.580	26645.952
594.708	26739.558
594.837	26735.096
594.965	26886.663
595.093	26856.288
595.221	27042.683
595.349	27007.635
595.477	27045.125
595.605	27148.500
595.733	27150.856
595.862	27210.558
595.990	27184.740
596.118	27303.577
596.246	27321.462
596.374	27401.115
596.502	27448.971
596.630	27456.750
596.758	27418.673
596.887	27523.558
597.015	27523.481
597.143	27564.183
597.271	27590.712
597.399	27706.606
597.527	27634.846
597.655	27704.365
597.783	27690.923
597.912	27676.163
598.040	27749.337
598.168	27752.442
598.296	27617.654
598.424	27828.731
598.552	27678.375
598.680	27706.308
598.808	27832.356
598.937	27749.135
599.065	27692.817
599.193	27746.885
599.321	27749.875
599.449	27683.029
599.577	27667.317
599.705	27632.096
599.833	27638.731
599.962	27571.471
600.090	27629.721
600.218	27541.231
600.346	27607.173
600.474	27581.760
600.602	27558.375
600.730	27589.933
600.858	27652.192
600.987	27715.769
601.115	27610.683
601.243	27612.337
601.371	27741.288
601.499	27722.096
601.627	27720.798
601.755	27766.423
601.883	27827.173
602.012	27699.394
602.140	27834.942
602.268	27827.029
602.396	28042.894
602.524	27974.106
602.652	28114.500
602.780	28087.654
602.908	28182.048
603.037	28290.462
603.165	28349.077
603.293	28402.010
603.421	28449.404
603.549	28497.423
603.677	28591.529
603.805	28703.625
603.933	28778.942
604.062	28871.962
604.190	28961.692
604.318	29058.317
604.446	29060.144
604.574	29189.625
604.702	29218.837
604.830	29281.808
604.958	29343.740
605.087	29521.173
605.215	29650.144
605.343	29765.221
605.471	29763.663
605.599	29820.673
605.727	30008.990
605.855	30060.990
605.983	30124.673
606.112	30133.913
606.240	30175.260
606.368	30236.404
606.496	30237.519
606.624	30374.952
606.752	30367.673
606.880	30446.875
607.008	30505.644
607.137	30547.221
607.265	30609.894
607.393	30593.596
607.521	30665.702
607.649	30595.760
607.777	30603.952
607.905	30622.452
608.033	30644.606
608.162	30617.337
608.290	30651.115
608.418	30749.308
608.546	30720.010
608.674	30733.769
608.802	30632.510
608.930	30666.654
609.058	30664.481
609.187	30691.183
609.315	30621.567
609.443	30553.587
609.571	30636.971
609.699	30526.019
609.827	30602.260
609.955	30509.558
610.083	30486.548
610.212	30441.962
610.340	30421.663
610.468	30402.240
610.596	30386.058
610.724	30353.067
610.852	30406.942
610.980	30383.394
611.108	30361.490
611.237	30347.038
611.365	30363.038
611.493	30365.048
611.621	30327.490
611.749	30372.212
611.877	30465.067
612.005	30431.337
612.133	30504.538
612.262	30470.250
612.390	30542.788
612.518	30593.971
612.646	30604.385
612.774	30652.154
612.902	30637.471
613.030	30713.817
613.158	30657.087
613.287	30770.923
613.415	30684.423
613.543	30826.000
613.671	30843.606
613.799	30905.212
613.927	30916.625
614.055	31060.952
614.183	31029.558
614.312	31079.115
614.440	31212.115
614.568	31247.875
614.696	31311.673
614.824	31349.413
614.952	31462.221
615.080	31510.038
615.208	31622.260
615.337	31730.769
615.465	31637.096
615.593	31801.087
615.721	31797.635
615.849	31963.279
615.977	31916.308
616.105	31985.875
616.233	32004.798
616.362	32146.635
616.490	32197.769
616.618	32242.740
616.746	32381.356
616.874	32412.894
617.002	32502.067
617.130	32497.500
617.258	32445.337
617.387	32545.125
617.515	32601.769
617.643	32591.471
617.771	32644.010
617.899	32680.712
618.027	32715.865
618.155	32757.279
618.283	32793.202
618.412	32814.298
618.540	32916.327
618.668	32929.413
618.796	32895.019
618.924	32905.692
619.052	32919.337
619.180	32874.279
619.308	32810.760
619.437	32842.548
619.565	32847.029
619.693	32827.356
619.821	32905.981
619.949	32875.192
620.077	32904.356
620.205	32885.788
620.333	32976.404
620.462	32900.894
620.590	32965.990
620.718	32928.029
620.846	33030.635
620.974	32926.933
621.102	32901.538
621.230	32895.923
621.358	33033.654
621.487	32915.673
621.615	32898.712
621.743	32797.337
621.871	32835.106
621.999	32778.654
622.127	32767.885
622.255	32829.413
622.383	32787.212
622.512	32770.904
622.640	32719.298
622.768	32789.106
622.896	32794.654
623.024	32758.702
623.152	32723.923
623.280	32838.423
623.408	32745.019
623.537	32832.962
623.665	32755.144
623.793	32772.548
623.921	32774.952
624.049	32731.481
624.177	32675.663
624.305	32653.135
624.433	32622.644
624.562	32687.010
624.690	32739.971
624.818	32551.990
624.946	32578.337
625.074	32538.346
625.202	32554.462
625.330	32513.644
625.458	32641.154
625.587	32584.298
625.715	32565.385
625.843	32552.692
625.971	32663.250
626.099	32547.375
626.227	32599.904
626.355	32519.654
626.483	32613.462
626.612	32527.894
626.740	32645.288
626.868	32639.904
626.996	32622.856
627.124	32617.106
627.252	32644.683
627.380	32661.058
627.508	32631.192
627.637	32598.760
627.765	32751.894
627.893	32740.933
628.021	32781.240
628.149	32660.885
628.277	32781.048
628.405	32753.327
628.533	32766.692
628.662	32774.596
628.790	32910.721
628.918	32854.135
629.046	32998.135
629.174	32935.625
629.302	32938.346
629.430	32951.365
629.558	33041.942
629.687	33024.865
629.815	33085.567
629.943	33198.279
630.071	33172.856
630.199	33266.856
630.327	33246.731
630.455	33317.433
630.583	33307.202
630.712	33264.894
630.840	33359.663
630.968	33372.173
631.096	33428.875
631.224	33396.365
631.352	33601.433
631.480	33545.202
631.608	33721.673
631.737	33517.231
631.865	33608.163
631.993	33571.817
632.121	33840.125
632.249	33677.779
632.377	33647.394
632.505	33716.865
632.633	33848.875
632.762	33652.798
632.890	33717.038
633.018	33710.202
633.146	33699.308
633.274	33686.048
633.402	33664.231
633.530	33693.721
633.658	33684.740
633.787	33615.558
633.915	33643.135
634.043	33665.096
634.171	33663.788
634.299	33597.212
634.427	33566.019
634.555	33741.529
634.683	33538.452
634.812	33539.519
634.940	33440.971
635.068	33463.529
635.196	33420.308
635.324	33403.635
635.452	33353.269
635.580	33364.740
635.708	33252.452
635.837	33222.971
635.965	33110.404
636.093	33127.154
636.221	32962.298
636.349	32920.010
636.477	32881.558
636.605	32888.385
636.733	32814.798
636.862	32762.327
636.990	32701.702
637.118	32622.990
637.246	32620.933
637.374	32658.087
637.502	32453.731
637.630	32367.654
637.758	32306.740
637.887	32246.038
638.015	32315.702
638.143	32204.808
638.271	32084.644
638.399	32058.192
638.527	32015.019
638.655	31963.442
638.783	31914.144
638.912	31933.163
639.040	31749.356
639.168	31700.298
639.296	31617.394
639.424	31702.115
639.552	31600.952
639.680	31619.346
639.808	31558.904
639.937	31461.048
640.065	31514.779
640.193	31453.144
640.321	31535.029
640.449	31492.808
640.577	31400.288
640.705	31391.510
640.833	31332.442
640.962	31375.519
641.090	31275.019
641.218	31298.923
641.346	31303.673
641.474	31272.990
641.602	31285.260
641.730	31235.606
641.858	31183.288
641.987	31192.990
642.115	31347.788
642.243	31172.885
642.371	31305.327
642.499	31117.798
642.627	31200.096
642.755	31169.923
642.883	31127.192
643.012	31119.846
643.140	31116.683
643.268	31148.606
643.396	31081.192
643.524	31097.471
643.652	31158.779
643.780	31098.288
643.908	31071.538
644.037	31096.663
644.165	31039.413
644.293	31221.740
644.421	31029.096
644.549	31025.163
644.677	31008.308
644.805	30994.856
644.933	30914.394
645.062	30991.702
645.190	31096.904
645.318	31026.827
645.446	30952.865
645.574	30919.971
645.702	30912.788
645.830	30940.683
645.958	30885.173
646.087	30845.615
646.215	30743.365
646.343	30805.529
646.471	30912.067
646.599	30729.615
646.727	30731.567
646.855	30709.471
646.983	30676.865
647.112	30702.048
647.240	30606.413
647.368	30593.413
647.496	30606.817
647.624	30498.048
647.752	30496.779
647.880	30414.760
648.008	30444.154
648.137	30418.260
648.265	30404.538
648.393	30432.413
648.521	30296.981
648.649	30412.865
648.777	30265.019
648.905	30165.087
649.033	30210.000
649.162	30022.250
649.290	29919.087
649.418	29940.231
649.546	30020.827
649.674	29824.087
649.802	29806.971
649.930	29683.548
650.058	29640.913
650.187	29682.962
650.315	29590.529
650.443	29586.346
650.571	29394.538
650.699	29356.865
650.827	29338.183
650.955	29281.596
651.083	29307.471
651.212	29208.510
651.340	29135.115
651.468	29039.067
651.596	28951.625
651.724	28948.750
651.852	28920.875
651.980	28829.356
652.108	28739.942
652.237	28778.096
652.365	28648.404
652.493	28566.125
652.621	28495.529
652.749	28501.875
652.877	28469.750
653.005	28424.779
653.133	28374.519
653.262	28279.894
653.390	28163.212
653.518	28261.346
653.646	28050.288
653.774	28027.452
653.902	28073.317
654.030	28019.067
654.158	27947.519
654.287	27907.087
654.415	27803.375
654.543	27848.827
654.671	27760.394
654.799	27712.510
654.927	27596.327
655.055	27588.519
655.183	27507.596
655.312	27518.673
655.440	27440.375
655.568	27413.519
655.696	27388.365
655.824	27289.865
655.952	27265.510
656.080	27138.673
656.208	27161.971
656.337	27156.212
656.465	27257.115
656.593	27071.654
656.721	27060.346
656.849	27004.144
656.977	26788.202
657.105	26790.144
657.233	26785.856
657.362	26797.894
657.490	26788.971
657.618	26669.279
657.746	26617.048
657.874	26430.154
658.002	26312.365
658.130	26225.077
658.258	26166.010
658.387	26119.019
658.515	26111.904
658.643	25986.981
658.771	26053.750
658.899	25952.712
659.027	25895.837
659.155	25860.010
659.283	25762.154
659.412	25759.529
659.540	25740.096
659.668	25657.683
659.796	25770.673
659.924	25708.288
660.052	25792.279
660.180	25668.163
660.308	25700.567
660.437	25650.846
660.565	25516.163
660.693	25319.462
660.821	25462.875
660.949	25242.394
661.077	25214.423
661.205	25341.865
661.333	25160.125
661.462	25085.500
661.590	25163.029
661.718	24964.740
661.846	24974.779
661.974	24889.452
662.102	24848.885
662.230	24784.115
662.358	24720.740
662.487	24692.308
662.615	24668.933
662.743	24591.394
662.871	24663.413
662.999	24522.154
663.127	24400.308
663.255	24380.183
663.383	24444.692
663.512	24288.971
663.640	24271.740
663.768	24275.962
663.896	24183.327
664.024	24186.260
664.152	24139.144
664.280	24201.529
664.408	23996.529
664.537	23958.683
664.665	23975.163
664.793	23965.317
664.921	23836.250
665.049	23913.558
665.177	23810.990
665.305	23777.635
665.433	23734.798
665.562	23827.788
665.690	23711.510
665.818	23809.452
665.946	23537.067
666.074	23506.760
666.202	23497.077
666.330	23413.971
666.458	23696.702
666.587	23400.913
666.715	23298.500
666.843	23279.933
666.971	23248.481
667.099	23260.567
667.227	23294.894
667.355	23220.231
667.483	23119.135
667.612	23171.106
667.740	23076.183
667.868	22981.567
667.996	22990.952
668.124	22943.125
668.252	22975.317
668.380	22831.135
668.508	22867.077
668.637	22755.269
668.765	22713.644
668.893	22644.385
669.021	22620.154
669.149	22654.769
669.277	22472.202
669.405	22639.548
669.533	22561.298
669.662	22431.625
669.790	22370.490
669.918	22378.019
670.046	22424.356
670.174	22226.077
670.302	22190.240
670.430	22078.904
670.558	22064.885
670.687	22193.538
670.815	21980.894
670.943	21979.942
671.071	21894.510
671.199	21793.317
671.327	21742.529
671.455	21777.096
671.583	21657.750
671.712	21646.048
671.840	21630.365
671.968	21729.375
672.096	21605.067
672.224	21428.481
672.352	21366.558
672.480	21243.356
672.608	21304.010
672.737	21177.990
672.865	21139.856
672.993	21056.712
673.121	20997.288
673.249	20976.269
673.377	20903.115
673.505	20840.846
673.633	20863.827
673.762	20758.827
673.890	20718.212
674.018	20697.317
674.146	20545.481
674.274	20558.038
674.402	20557.423
674.530	20451.019
674.658	20358.163
674.787	20288.183
674.915	20394.087
675.043	20200.250
675.171	20094.510
675.299	20029.952
675.427	19991.279
675.555	19985.356
675.683	19879.394
675.812	19785.144
675.940	19778.769
676.068	19643.115
676.196	19703.894
676.324	19567.144
676.452	19524.731
676.580	19432.356
676.708	19359.510
676.837	19323.385
676.965	19421.279
677.093	19405.865
677.221	19160.615
677.349	19088.231
677.477	19139.596
677.605	18968.856
677.733	18913.240
677.862	18881.029
677.990	18873.269
678.118	18868.587
678.246	18761.577
678.374	18750.663
678.502	18669.327
678.630	18532.404
678.758	18524.731
678.887	18615.933
679.015	18367.721
679.143	18325.481
679.271	18312.442
679.399	18230.260
679.527	18229.596
679.655	18212.240
679.783	18104.971
679.912	17991.510
680.040	18132.442
680.168	17938.394
680.296	17930.212
680.424	17832.481
680.552	17800.577
680.680	17725.173
680.808	17654.644
680.937	17602.981
681.065	17652.702
681.193	17559.837
681.321	17480.981
681.449	17522.221
681.577	17441.096
681.705	17416.058
681.833	17351.692
681.962	17297.029
682.090	17216.452
682.218	17189.817
682.346	17171.327
682.474	17083.856
682.602	17054.365
682.730	17099.923
682.858	17010.183
682.987	16976.769
683.115	16916.721
683.243	16896.817
683.371	16827.481
683.499	16772.346
683.627	16803.019
683.755	16734.760
683.883	16668.365
684.012	16626.913
684.140	16577.788
684.268	16610.212
684.396	16633.538
684.524	16512.269
684.652	16505.308
684.780	16478.942
684.908	16404.933
685.037	16407.288
685.165	16340.933
685.293	16352.212
685.421	16301.327
685.549	16259.779
685.677	16207.885
685.805	16161.077
685.933	16118.558
686.062	16104.269
686.190	15996.981
686.318	15969.760
686.446	15957.010
686.574	15884.635
686.702	15897.625
686.830	15840.654
686.958	15871.144
687.087	15739.538
687.215	15731.481
687.343	15652.740
687.471	15825.577
687.599	15560.327
687.727	15535.760
687.855	15495.240
687.983	15446.462
688.112	15474.923
688.240	15421.663
688.368	15388.231
688.496	15329.625
688.624	15239.731
688.752	15360.202
688.880	15205.144
689.008	15123.202
689.137	15074.269
689.265	15034.885
689.393	15002.673
689.521	14952.856
689.649	15066.385
689.777	14946.413
689.905	14933.010
690.033	14786.346
690.162	14774.433
690.290	14795.779
690.418	14682.942
690.546	14706.596
690.674	14683.192
690.802	14646.663
690.930	14539.942
691.058	14510.365
691.187	14453.240
691.315	14406.933
691.443	14390.567
691.571	14343.817
691.699	14245.087
691.827	14221.317
691.955	14242.817
692.083	14164.019
692.212	14142.567
692.340	14108.106
692.468	14097.769
692.596	14024.558
692.724	13961.769
692.852	13996.846
692.980	13938.692
693.108	13945.798
693.237	13815.500
693.365	13741.308
693.493	13707.769
693.621	13705.587
693.749	13612.962
693.877	13640.827
694.005	13509.769
694.133	13464.606
694.262	13502.894
694.390	13344.327
694.518	13375.077
694.646	13326.471
694.774	13221.317
694.902	13225.750
695.030	13190.952
695.158	13097.837
695.287	13073.894
695.415	13052.654
695.543	12972.519
695.671	12877.212
695.799	13018.625
695.927	12847.221
696.055	12840.673
696.183	12743.327
696.312	12897.856
696.440	12728.596
696.568	12668.375
696.696	12550.538
696.824	12502.779
696.952	12494.038
697.080	12463.933
697.208	12354.490
697.337	12311.433
697.465	12300.433
697.593	12226.635
697.721	12300.365
697.849	12162.442
697.977	12144.933
698.105	12182.327
698.233	12071.952
698.362	11992.500
698.490	12097.933
698.618	11898.971
698.746	11875.221
698.874	11898.538
699.002	11832.404
699.130	11835.760
699.258	11735.000
699.387	11635.808
699.515	11663.760
699.643	11628.808
699.771	11676.663
699.899	11513.365
700.027	11459.817
700.155	11468.885
700.283	11345.029
700.412	11365.058
700.540	11358.433
700.668	11354.471
700.796	11239.058
700.924	11250.385
701.052	11232.010
701.180	11147.827
701.308	11061.231
701.437	11040.990
701.565	11002.106
701.693	10986.048
701.821	11117.308
701.949	10891.135
702.077	10846.250
702.205	10887.673
702.333	10792.221
702.462	10738.375
702.590	10745.808
702.718	10613.615
702.846	10777.433
702.974	10571.606
703.102	10530.692
703.230	10527.452
703.358	10451.481
703.487	10383.231
703.615	10391.288
703.743	10307.837
703.871	10285.606
703.999	10258.788
704.127	10186.846
704.255	10146.346
704.383	10149.308
704.512	10179.827
704.640	10107.760
704.768	10145.673
704.896	10030.394
705.024	9889.885
705.152	9922.625
705.280	9938.442
705.408	9789.212
705.537	9782.962
705.665	9756.490
705.793	9680.702
705.921	9655.635
706.049	9589.856
706.177	9607.952
706.305	9521.981
706.433	9543.538
706.562	9493.269
706.690	9446.019
706.818	9409.077
706.946	9331.173
707.074	9275.846
707.202	9216.712
707.330	9203.231
707.458	9187.231
707.587	9116.538
707.715	9129.933
707.843	9129.894
707.971	9082.981
708.099	8959.692
708.227	8943.558
708.355	8901.404
708.483	8876.567
708.612	8867.894
708.740	8782.423
708.868	8766.577
708.996	8791.731
709.124	8775.606
709.252	8722.942
709.380	8681.490
709.508	8615.933
709.637	8652.865
709.765	8566.615
709.893	8602.731
710.021	8470.010
710.149	8559.644
710.277	8402.856
710.405	8374.019
710.533	8342.673
710.662	8339.269
710.790	8419.394
710.918	8239.135
711.046	8294.260
711.174	8229.558
711.302	8228.096
711.430	8165.346
711.558	8194.933
711.687	8131.365
711.815	8051.942
711.943	8009.837
712.071	8015.202
712.199	8002.413
712.327	8034.317
712.455	7894.760
712.583	8080.337
712.712	7874.702
712.840	7886.952
712.968	7794.981
713.096	7783.500
713.224	7750.875
713.352	7701.510
713.480	7668.260
713.608	7623.135
713.737	7614.404
713.865	7635.288
713.993	7565.212
714.121	7566.423
714.249	7501.471
714.377	7468.673
714.505	7435.933
714.633	7410.779
714.762	7380.337
714.890	7369.356
715.018	7342.077
715.146	7358.942
715.274	7266.269
715.402	7257.404
715.530	7239.846
715.658	7249.183
715.787	7206.654
715.915	7263.808
716.043	7142.462
716.171	7259.317
716.299	7054.279
716.427	7150.971
716.555	7029.577
716.683	7031.048
716.812	6969.010
716.940	6944.106
717.068	6895.548
717.196	7071.192
717.324	6921.250
717.452	6852.827
717.580	6905.221
717.708	6775.865
717.837	6771.250
717.965	6801.510
718.093	6730.740
718.221	6741.231
718.349	6766.567
718.477	6662.173
718.605	6741.952
718.733	6609.702
718.862	6641.827
718.990	6558.298
719.118	6620.779
719.246	6496.279
719.374	6482.971
719.502	6545.327
719.630	6586.683
719.758	6419.029
719.887	6375.029
720.015	6400.096
720.143	6405.317
720.271	6283.106
720.399	6357.221
720.527	6264.337
720.655	6344.308
720.783	6228.442
720.912	6183.058
721.040	6187.798
721.168	6176.500
721.296	6091.096
721.424	6099.240
721.552	6051.096
721.680	6117.240
721.808	6062.663
721.937	6010.010
722.065	6053.423
722.193	5959.404
722.321	5954.317
722.449	5951.885
722.577	5885.635
722.705	5851.327
722.833	5870.538
722.962	5837.385
723.090	5770.481
723.218	5764.731
723.346	5800.788
723.474	5696.865
723.602	5677.413
723.730	5656.183
723.858	5636.173
723.987	5629.558
724.115	5590.865
724.243	5618.212
724.371	5532.885
724.499	5518.183
724.627	5507.000
724.755	5467.760
724.883	5565.029
725.012	5599.827
725.140	5448.548
725.268	5355.856
725.396	5436.529
725.524	5484.596
725.652	5301.654
725.780	5423.212
725.908	5281.385
726.037	5247.817
726.165	5251.087
726.293	5201.721
726.421	5205.163
726.549	5194.375
726.677	5167.635
726.805	5115.952
726.933	5121.731
727.062	5089.558
727.190	5060.894
727.318	5001.750
727.446	5002.740
727.574	4949.365
727.702	4935.615
727.830	5002.644
727.958	4930.096
728.087	5014.365
728.215	5023.019
728.343	4896.183
728.471	4880.837
728.599	4996.490
728.727	4825.837
728.855	4812.885
728.983	4762.077
729.112	4773.115
729.240	4763.923
729.368	4721.990
729.496	4740.308
729.624	4721.615
729.752	4638.990
729.880	4641.144
730.008	4632.971
730.137	4620.788
730.265	4583.106
730.393	4737.779
730.521	4696.538
730.649	4496.346
730.777	4441.077
730.905	4494.750
731.033	4421.990
731.162	4540.452
731.290	4512.212
731.418	4413.144
731.546	4393.865
731.674	4372.654
731.802	4306.769
731.930	4417.567
732.058	4445.740
732.187	4336.471
732.315	4314.500
732.443	4399.077
732.571	4310.144
732.699	4291.221
732.827	4278.817
732.955	4216.106
733.083	4198.663
733.212	4225.721
733.340	4154.933
733.468	4134.183
733.596	4149.548
733.724	4124.221
733.852	4135.654
733.980	4130.827
734.108	4260.875
734.237	4095.837
734.365	4054.885
734.493	4029.769
734.621	4022.625
734.749	4017.913
734.877	4033.990
735.005	3994.452
735.133	3975.683
735.262	4056.885
735.390	3951.346
735.518	3921.115
735.646	3979.769
735.774	3972.058
735.902	3968.663
736.030	3866.192
736.158	3853.048
736.287	3888.615
736.415	3832.433
736.543	3828.760
736.671	3790.663
736.799	3811.846
736.927	3780.981
737.055	3889.202
737.183	3730.808
737.312	3714.327
737.440	3733.500
737.568	3810.452
737.696	3772.404
737.824	3693.096
737.952	3948.875
738.080	3652.115
738.208	3707.019
738.337	3639.279
738.465	3661.538
738.593	3620.865
738.721	3611.452
738.849	3651.548
738.977	3577.981
739.105	3574.606
739.233	3557.144
739.362	3532.865
739.490	3505.702
739.618	3548.808
739.746	3531.317
739.874	3480.462
740.002	3490.221
740.130	3460.317
740.258	3422.808
740.387	3467.135
740.515	3420.212
740.643	3438.385
740.771	3482.442
740.899	3378.702
741.027	3353.923
741.155	3345.067
741.283	3314.048
741.412	3441.500
741.540	3350.923
741.668	3328.183
741.796	3385.827
741.924	3287.942
742.052	3409.077
742.180	3284.548
742.308	3237.702
742.437	3265.933
742.565	3233.885
742.693	3319.894
742.821	3193.317
742.949	3168.510
743.077	3217.423
743.205	3121.712
743.333	3169.962
743.462	3153.894
743.590	3114.721
743.718	3155.067
743.846	3114.663
743.974	3140.567
744.102	3069.962
744.230	3096.760
744.358	3066.596
744.487	3060.173
744.615	3014.798
744.743	3025.750
744.871	3011.423
744.999	3067.625
745.127	2979.740
745.255	2947.385
745.383	2975.173
745.512	2939.519
745.640	2914.365
745.768	2933.231
745.896	2988.298
746.024	2935.721
746.152	2873.625
746.280	2937.077
746.408	2887.346
746.537	2951.962
746.665	2849.981
746.793	2820.125
746.921	2824.875
747.049	2832.442
747.177	2788.894
747.305	3003.692
747.433	2775.327
747.562	2739.365
747.690	2804.692
747.818	2848.615
747.946	2747.885
748.074	2735.288
748.202	2749.404
748.330	2735.317
748.458	2716.885
748.587	2693.721
748.715	2756.606
748.843	2688.240
748.971	2674.087
749.099	2705.817
749.227	2681.058
749.355	2706.760
749.483	2646.077
749.612	2693.452
749.740	2662.029
749.868	2667.337
749.996	2656.087
750.124	2680.115
750.252	2641.904
750.380	2610.385
750.508	2625.019
750.637	2580.615
750.765	2655.558
750.893	2600.183
751.021	2579.644
751.149	2577.769
751.277	2572.587
751.405	2542.423
751.533	2561.615
751.662	2515.288
751.790	2548.769
751.918	2501.346
752.046	2513.510
752.174	2492.481
752.302	2463.269
752.430	2485.788
752.558	2463.654
752.687	2454.500
752.815	2466.981
752.943	2431.673
753.071	2417.202
753.199	2436.885
753.327	2435.202
753.455	2389.231
753.583	2394.010
753.712	2366.673
753.840	2383.981
753.968	2368.337
754.096	2358.212
754.224	2342.375
754.352	2322.644
754.480	2359.798
754.608	2320.279
754.737	2319.365
754.865	2309.587
754.993	2307.346
755.121	2298.288
755.249	2278.433
755.377	2241.067
755.505	2259.846
755.633	2255.000
755.762	2226.577
755.890	2234.519
756.018	2211.087
756.146	2203.077
756.274	2184.385
756.402	2197.135
756.530	2178.317
756.658	2182.913
756.787	2136.837
756.915	2144.808
757.043	2131.048
757.171	2130.769
757.299	2149.817
757.427	2095.173
757.555	2100.827
757.683	2113.048
757.812	2095.673
757.940	2071.375
758.068	2076.846
758.196	2056.885
758.324	2049.923
758.452	2049.163
758.580	2042.510
758.708	2032.019
758.837	2039.779
758.965	2037.288
759.093	2029.385
759.221	1981.356
759.349	1981.115
759.477	1970.413
759.605	1962.933
759.733	1989.500
759.862	1938.856
759.990	1950.038
760.118	1938.567
760.246	1946.721
760.374	1939.577
760.502	1913.837
760.630	1905.096
760.758	1891.712
760.887	1898.029
761.015	1879.365
761.143	1878.048
761.271	1867.663
761.399	1861.231
761.527	1856.779
761.655	1856.346
761.783	1825.240
761.912	1820.433
762.040	1831.529
762.168	1798.154
762.296	1801.115
762.424	1797.885
762.552	1805.346
762.680	1763.154
762.808	1784.077
762.937	1760.375
763.065	1750.433
763.193	1732.298
763.321	1737.481
763.449	1728.538
763.577	1715.115
763.705	1732.135
763.833	1719.452
763.962	1693.769
764.090	1687.654
764.218	1681.010
764.346	1681.135
764.474	1679.577
764.602	1660.346
764.730	1662.346
764.858	1638.500
764.987	1662.654
765.115	1633.510
765.243	1610.029
765.371	1614.404
765.499	1614.510
765.627	1617.538
765.755	1598.337
765.883	1592.981
766.012	1580.817
766.140	1574.856
766.268	1561.048
766.396	1567.269
766.524	1557.462
766.652	1537.635
766.780	1547.288
766.908	1534.375
767.037	1539.846
767.165	1533.673
767.293	1532.952
767.421	1532.096
767.549	1494.337
767.677	1537.135
767.805	1494.413
767.933	1492.865
768.062	1490.837
768.190	1479.442
768.318	1472.183
768.446	1467.481
768.574	1465.827
768.702	1467.567
768.830	1455.038
768.958	1449.269
769.087	1454.856
769.215	1435.212
769.343	1432.269
769.471	1450.163
769.599	1438.519
769.727	1426.048
769.855	1410.702
769.983	1450.010
770.112	1405.433
770.240	1383.337
770.368	1392.644
770.496	1382.635
770.624	1388.394
770.752	1370.769
770.880	1389.442
771.008	1365.269
771.137	1357.769
771.265	1343.913
771.393	1329.577
771.521	1349.173
771.649	1350.221
771.777	1358.308
771.905	1383.635
772.033	1352.538
772.162	1316.577
772.290	1324.173
772.418	1319.596
772.546	1304.808
772.674	1304.577
772.802	1288.452
772.930	1297.462
773.058	1286.038
773.187	1295.981
773.315	1280.337
773.443	1278.375
773.571	1277.462
773.699	1264.462
773.827	1272.885
773.955	1285.808
774.083	1263.308
774.212	1247.346
774.340	1254.625
774.468	1233.250
774.596	1232.519
774.724	1241.971
774.852	1242.471
774.980	1243.077
775.108	1224.827
775.237	1211.529
775.365	1207.288
775.493	1216.317
775.621	1196.058
775.749	1205.846
775.877	1218.875
776.005	1203.298
776.133	1192.750
776.262	1185.538
776.390	1179.750
776.518	1170.452
776.646	1188.644
776.774	1178.048
776.902	1159.212
777.030	1166.135
777.158	1157.779
777.287	1171.654
777.415	1148.452
777.543	1149.683
777.671	1146.510
777.799	1146.087
777.927	1149.231
778.055	1142.933
778.183	1130.058
778.312	1136.346
778.440	1126.663
778.568	1134.183
778.696	1125.144
778.824	1116.837
778.952	1127.654
779.080	1109.337
779.208	1105.413
779.337	1110.567
779.465	1112.346
779.593	1098.808
779.721	1095.135
779.849	1104.413
779.977	1087.750
780.105	1077.904
780.233	1077.144
780.362	1072.269
780.490	1064.827
780.618	1066.760
780.746	1054.788
780.874	1054.808
781.002	1056.865
781.130	1042.442
781.258	1049.548
781.387	1049.173
781.515	1040.288
781.643	1027.615
781.771	1028.846
781.899	1044.260
782.027	1026.346
782.155	1025.173
782.283	1022.115
782.412	1024.308
782.540	1030.981
782.668	1015.038
782.796	1015.913
782.924	1017.452
783.052	1005.942
783.180	997.269
783.308	1001.587
783.437	997.067
783.565	1004.798
783.693	1001.288
783.821	995.096
783.949	989.769
784.077	971.279
784.205	979.567
784.333	971.760
784.462	972.404
784.590	971.885
784.718	953.558
784.846	961.317
784.974	974.740
785.102	955.615
785.230	949.817
785.358	946.952
785.487	943.990
785.615	939.115
785.743	940.990
785.871	943.423
785.999	933.981
786.127	943.288
786.255	920.904
786.383	921.952
786.512	930.048
786.640	922.827
786.768	912.029
786.896	909.192
787.024	900.808
787.152	897.587
787.280	923.288
787.408	906.125
787.537	908.942
787.665	907.125
787.793	888.183
787.921	891.442
788.049	879.981
788.177	876.798
788.305	878.288
788.433	884.817
788.562	876.596
788.690	874.413
788.818	872.894
788.946	866.394
789.074	865.519
789.202	860.471
789.330	852.154
789.458	861.442
789.587	847.596
789.715	862.837
789.843	861.019
789.971	849.596
790.099	832.462
790.227	831.644
790.355	832.308
790.483	845.798
790.612	835.462
790.740	834.663
790.868	827.510
790.996	835.962
791.124	837.125
791.252	829.404
791.380	820.846
791.508	818.135
791.637	823.346
791.765	802.952
791.893	815.606
792.021	807.279
792.149	802.673
792.277	808.154
792.405	791.000
792.533	800.788
792.662	791.625
792.790	791.048
792.918	801.510
793.046	784.337
793.174	780.692
793.302	775.375
793.430	778.615
793.558	785.529
793.687	775.173
793.815	764.558
793.943	780.144
794.071	762.317
794.199	755.298
794.327	758.462
794.455	767.692
794.583	753.587
794.712	757.240
794.840	741.058
794.968	748.548
795.096	766.317
795.224	730.692
795.352	782.606
795.480	733.173
795.608	734.327
795.737	725.683
795.865	729.846
795.993	732.010
796.121	727.567
796.249	719.221
796.377	721.115
796.505	721.721
796.633	716.644
796.762	709.471
796.890	710.952
797.018	712.038
797.146	714.625
797.274	706.971
797.402	695.317
797.530	690.260
797.658	689.538
797.787	704.317
797.915	690.298
798.043	683.865
798.171	697.423
798.299	682.894
798.427	689.567
798.555	686.423
798.683	676.577
798.812	702.913
798.940	716.577
799.068	702.538
799.196	672.442
799.324	674.279
799.452	655.683
799.580	658.375
799.708	659.529
799.837	656.269
799.965	652.942
800.093	647.798
800.221	643.077
800.349	642.500
800.477	638.260
800.605	632.221
800.733	646.144
800.862	641.452
800.990	630.760
801.118	628.567
801.246	636.192
801.374	627.163
801.502	627.346
801.630	628.356
801.758	622.471
801.887	615.029
802.015	623.202
802.143	606.548
802.271	616.865
802.399	609.606
802.527	603.163
802.655	604.096
802.783	598.385
802.912	599.087
803.040	595.904
803.168	592.750
803.296	601.702
803.424	592.346
803.552	595.519
803.680	598.115
803.808	587.269
803.937	585.433
804.065	583.019
804.193	591.144
804.321	597.817
804.449	597.673
804.577	586.212
804.705	597.779
804.833	577.279
804.962	574.760
805.090	575.452
805.218	568.413
805.346	561.865
805.474	570.913
805.602	573.635
805.730	578.750
805.858	556.058
805.987	558.423
806.115	554.087
806.243	563.538
806.371	552.433
806.499	555.019
806.627	548.692
806.755	556.962
806.883	551.990
807.012	544.567
807.140	544.452
807.268	533.135
807.396	540.510
807.524	538.154
807.652	548.173
807.780	532.452
807.908	539.481
808.037	542.481
808.165	535.942
808.293	524.808
808.421	526.731
808.549	526.760
808.677	526.385
808.805	533.269
808.933	523.481
809.062	522.798
809.190	533.644
809.318	528.452
809.446	512.990
809.574	528.279
809.702	512.106
809.830	507.106
809.958	526.269
810.087	516.740
810.215	507.000
810.343	512.346
810.471	512.923
810.599	497.913
810.727	509.750
810.855	498.394
810.983	509.846
811.112	499.471
811.240	501.221
811.368	495.769
811.496	508.087
811.624	494.817
811.752	493.808
811.880	513.365
812.008	495.692
812.137	505.000
812.265	491.519
812.393	491.769
812.521	485.010
812.649	485.952
812.777	476.933
812.905	489.731
813.033	492.615
813.162	482.144
813.290	477.144
813.418	475.365
813.546	476.817
813.674	466.394
813.802	474.000
813.930	466.413
814.058	473.808
814.187	473.577
814.315	460.173
814.443	460.365
814.571	465.202
814.699	456.250
814.827	462.154
814.955	463.885
815.083	460.173
815.212	461.250
815.340	447.740
815.468	465.865
815.596	457.702
815.724	451.952
815.852	461.106
815.980	452.115
816.108	454.471
816.237	451.788
816.365	461.010
816.493	446.423
816.621	452.846
816.749	439.913
816.877	507.221
817.005	463.615
817.133	451.346
817.262	441.048
817.390	434.163
817.518	444.740
817.646	436.048
817.774	426.567
817.902	426.144
818.030	428.721
818.158	440.683
818.287	424.144
818.415	431.981
818.543	428.721
818.671	427.529
818.799	421.837
818.927	420.663
819.055	444.875
819.183	426.567
819.312	441.606
819.440	417.769
819.568	415.077
819.696	416.462
819.824	424.048
819.952	422.971
820.080	415.587
820.208	412.125
820.337	414.933
820.465	409.923
820.593	410.798
820.721	409.933
820.849	409.327
820.977	406.298
821.105	406.962
821.233	402.106
821.362	412.962
821.490	401.808
821.618	403.106
821.746	412.240
821.874	404.760
822.002	391.558
822.130	401.462
822.258	399.038
822.387	392.471
822.515	401.240
822.643	396.481
822.771	393.317
822.899	402.779
823.027	386.394
823.155	393.779
823.283	402.962
823.412	405.202
823.540	385.846
823.668	382.856
823.796	387.346
823.924	385.231
824.052	383.346
824.180	393.385
824.308	380.827
824.437	393.846
824.565	386.365
824.693	373.481
824.821	380.962
824.949	384.971
825.077	381.067
825.205	372.596
825.333	375.500
825.462	387.981
825.590	367.346
825.718	363.346
825.846	375.087
825.974	374.510
826.102	377.269
826.230	371.317
826.358	374.433
826.487	373.471
826.615	365.058
826.743	357.481
826.871	369.529
826.999	363.308
827.127	369.221
827.255	363.529
827.383	360.981
827.512	358.106
827.640	364.481
827.768	380.269
827.896	350.885
828.024	365.808
828.152	356.654
828.280	366.163
828.408	350.673
828.537	361.365
828.665	358.760
828.793	355.288
828.921	349.548
829.049	355.365
829.177	359.096
829.305	351.115
829.433	350.000
829.562	349.125
829.690	352.913
829.818	354.202
829.946	349.096
830.074	350.394
830.202	344.029
830.330	350.490
830.458	340.731
830.587	352.769
830.715	342.346
830.843	336.356
830.971	348.260
831.099	345.462
831.227	374.346
831.355	342.481
831.483	341.990
831.612	339.365
831.740	335.317
831.868	338.837
831.996	350.087
832.124	342.087
832.252	340.510
832.380	337.462
832.508	338.413
832.637	334.471
832.765	339.769
832.893	340.654
833.021	329.519
833.149	328.875
833.277	331.731
833.405	337.365
833.533	329.279
833.662	336.317
833.790	322.375
833.918	333.240
834.046	328.471
834.174	322.173
834.302	333.567
834.430	322.385
834.558	319.856
834.687	330.010
834.815	324.635
834.943	322.000
835.071	324.500
835.199	329.471
835.327	321.702
835.455	330.029
835.583	321.740
835.712	319.231
835.840	319.106
835.968	321.779
836.096	325.788
836.224	320.413
836.352	322.125
836.480	317.577
836.608	319.202
836.737	322.548
836.865	312.990
836.993	322.519
837.121	324.231
837.249	315.692
837.377	308.442
837.505	306.298
837.633	317.163
837.762	316.808
837.890	314.471
838.018	310.365
838.146	309.365
838.274	306.587
838.402	309.654
838.530	323.548
838.658	315.490
838.787	320.404
838.915	304.010
839.043	313.635
839.171	304.625
839.299	311.462
839.427	324.971
839.555	310.933
839.683	300.183
839.812	306.663
839.940	300.462
840.068	309.615
840.196	332.471
840.324	321.154
840.452	312.519
840.580	299.404
840.708	294.558
840.837	302.962
840.965	295.125
841.093	296.962
841.221	300.000
841.349	296.308
841.477	293.038
841.605	299.269
841.733	297.769
841.862	305.846
841.990	299.250
842.118	291.231
842.246	292.548
842.374	290.471
842.502	304.596
842.630	293.375
842.758	294.038
842.887	298.952
843.015	311.654
843.143	290.269
843.271	290.663
843.399	295.740
843.527	295.644
843.655	291.038
843.783	290.779
843.912	291.356
844.040	282.750
844.168	292.240
844.296	296.981
844.424	298.221
844.552	295.817
844.680	291.971
844.808	287.538
844.937	291.019
845.065	281.356
845.193	296.548
845.321	289.606
845.449	295.625
845.577	290.221
845.705	282.221
845.833	285.019
845.962	291.933
846.090	282.548
846.218	297.183
846.346	287.702
846.474	284.962
846.602	277.587
846.730	285.288
846.858	279.865
846.987	280.500
847.115	291.096
847.243	288.865
847.371	269.644
847.499	278.981
847.627	280.519
847.755	277.058
847.883	283.769
848.012	292.779
848.140	275.740
848.268	274.971
848.396	277.865
848.524	285.856
848.652	279.548
848.780	270.788
848.908	281.385
849.037	275.673
849.165	273.115
849.293	284.750
849.421	277.221
849.549	278.663
849.677	274.365
849.805	281.798
849.933	275.125
850.062	276.096
850.190	271.962
850.318	269.356
850.446	275.596
850.574	270.183
850.702	272.548
850.830	266.212
850.958	266.885
851.087	274.212
851.215	264.981
851.343	266.067
851.471	273.115
851.599	272.192
851.727	280.712
851.855	269.558
851.983	277.615
852.112	267.731
852.240	274.635
852.368	282.904
852.496	268.337
852.624	268.558
852.752	277.231
852.880	269.058
853.008	266.981
853.137	271.375
853.265	266.529
853.393	265.558
853.521	260.375
853.649	275.971
853.777	263.596
853.905	257.865
854.033	262.260
854.162	259.885
854.290	262.058
854.418	278.577
854.546	292.712
854.674	279.019
854.802	266.058
854.930	256.952
855.058	269.029
855.187	256.635
855.315	288.490
855.443	259.587
855.571	261.875
855.699	271.173
855.827	250.798
855.955	257.913
856.083	260.115
856.212	259.567
856.340	261.904
856.468	256.096
856.596	258.077
856.724	263.885
856.852	271.096
856.980	249.837
857.108	251.615
857.237	247.769
857.365	260.740
857.493	260.846
857.621	254.135
857.749	253.404
857.877	247.962
858.005	253.260
858.133	254.433
858.262	250.596
858.390	252.115
858.518	250.702
858.646	262.375
858.774	245.731
858.902	249.731
859.030	255.346
859.158	254.096
859.287	252.692
859.415	249.644
859.543	251.173
859.671	252.731
859.799	261.519
859.927	250.952
860.055	244.635
860.183	243.096
860.312	247.192
860.440	247.029
860.568	239.731
860.696	253.019
860.824	259.163
860.952	244.327
861.080	249.856
861.208	247.846
861.337	246.144
861.465	255.183
861.593	250.933
861.721	250.952
861.849	248.212
861.977	244.529
862.105	246.817
862.233	247.356
862.362	241.933
862.490	241.490
862.618	242.019
862.746	245.423
862.874	248.798
863.002	245.067
863.130	253.212
863.258	245.471
863.387	244.144
863.515	246.077
863.643	249.894
863.771	242.750
863.899	244.048
864.027	246.875
864.155	268.029
864.283	242.827
864.412	234.404
864.540	243.894
864.668	238.500
864.796	241.135
864.924	239.942
865.052	238.183
865.180	253.625
865.308	238.385
865.437	237.433
865.565	235.817
865.693	239.731
865.821	235.548
865.949	252.029
866.077	240.000
866.205	235.654
866.333	246.240
866.462	234.481
866.590	239.971
866.718	240.192
866.846	232.471
866.974	235.019
867.102	232.865
867.230	241.500
867.358	238.731
867.487	244.048
867.615	250.913
867.743	234.029
867.871	243.510
867.999	234.154
868.127	244.048
868.255	248.404
868.383	226.510
868.512	236.962
868.640	233.779
868.768	230.731
868.896	244.413
869.024	230.385
869.152	231.404
869.280	228.606
869.408	234.221
869.537	226.433
869.665	230.038
869.793	232.250
869.921	231.067
870.049	225.615
870.177	234.798
870.305	226.779
870.433	227.990
870.562	233.067
870.690	231.837
870.818	234.115
870.946	225.817
871.074	223.269
871.202	229.769
871.330	223.308
871.458	230.731
871.587	228.654
871.715	232.490
871.843	230.288
871.971	239.394
872.099	223.029
872.227	230.942
872.355	226.067
872.483	226.192
872.612	229.625
872.740	225.692
872.868	224.740
872.996	229.635
873.124	238.500
873.252	227.019
873.380	218.135
873.508	230.721
873.637	228.683
873.765	223.106
873.893	220.269
874.021	224.779
874.149	221.404
874.277	226.029
874.405	227.240
874.533	227.769
874.662	222.712
874.790	226.115
874.918	219.904
875.046	229.106
875.174	224.490
875.302	224.106
875.430	217.779
875.558	224.471
875.687	230.913
875.815	221.577
875.943	226.471
876.071	224.308
876.199	226.692
876.327	222.058
876.455	219.683
876.583	214.125
876.712	228.308
876.840	225.202
876.968	223.846
877.096	222.260
877.224	223.183
877.352	214.106
877.480	219.038
877.608	230.788
877.737	221.615
877.865	214.462
877.993	225.327
878.121	226.337
878.249	219.615
878.377	215.990
878.505	224.356
878.633	223.337
878.762	216.683
878.890	220.385
879.018	227.346
879.146	217.048
879.274	241.625
879.402	226.990
879.530	214.096
879.658	218.115
879.787	216.452
879.915	214.856
880.043	213.971
880.171	252.106
880.299	218.856
880.427	226.885
880.555	212.442
880.683	218.462
880.812	217.067
880.940	216.442
881.068	221.087
881.196	215.933
881.324	207.779
881.452	209.163
881.580	222.067
881.708	220.163
881.837	214.192
881.965	218.817
882.093	211.163
882.221	209.288
882.349	212.000
882.477	212.471
882.605	214.596
882.733	222.163
882.862	213.923
882.990	223.356
883.118	219.837
883.246	222.202
883.374	215.769
883.502	218.212
883.630	215.548
883.758	213.106
883.887	222.760
884.015	218.394
884.143	217.692
884.271	212.760
884.399	208.038
884.527	216.413
884.655	213.827
884.783	213.385
884.912	232.442
885.040	219.375
885.168	208.250
885.296	219.846
885.424	208.519
885.552	210.442
885.680	226.827
885.808	219.548
885.937	217.087
886.065	224.962
886.193	208.981
886.321	211.462
886.449	212.712
886.577	209.558
886.705	221.519
886.833	202.260
886.962	212.067
887.090	210.337
887.218	206.788
887.346	206.462
887.474	206.413
887.602	209.519
887.730	203.865
887.858	207.288
887.987	205.798
888.115	213.788
888.243	208.000
888.371	220.654
888.499	205.635
888.627	205.529
888.755	215.058
888.883	207.048
889.012	210.692
889.140	203.606
889.268	214.019
889.396	198.385
889.524	215.654
889.652	201.731
889.780	203.577
889.908	205.394
890.037	213.615
890.165	203.346
890.293	211.481
890.421	207.596
890.549	200.115
890.677	201.519
890.805	207.952
890.933	204.163
891.062	205.904
891.190	205.538
891.318	202.471
891.446	205.769
891.574	198.000
891.702	204.654
891.830	210.279
891.958	219.154
892.087	210.163
892.215	207.288
892.343	206.856
892.471	210.288
892.599	201.798
892.727	210.558
892.855	224.817
892.983	196.808
893.112	202.760
893.240	217.154
893.368	202.981
893.496	210.635
893.624	208.731
893.752	225.106
893.880	208.298
894.008	201.913
894.137	202.317
894.265	208.221
894.393	202.135
894.521	210.250
894.649	207.548
894.777	194.423
894.905	241.173
895.033	199.712
895.162	198.962
895.290	206.894
895.418	203.433
895.546	235.721
895.674	206.115
895.802	239.760
895.930	202.808
896.058	196.327
896.187	205.385
896.315	197.596
896.443	214.231
896.571	221.327
896.699	195.413
896.827	200.240
896.955	195.942
897.083	204.298
897.212	199.875
897.340	197.750
897.468	199.394
897.596	198.192
897.724	194.750
897.852	194.192
897.980	191.154
898.108	204.827
898.237	198.173
898.365	198.183
898.493	200.413
898.621	196.279
898.749	195.750
898.877	198.942
899.005	199.394
899.133	198.337
899.262	211.615
899.390	195.144
899.518	200.058
899.646	196.452
899.774	189.260
899.902	192.000
900.030	204.731
900.158	197.125
900.287	196.298
900.415	188.452
900.543	194.269
900.671	201.308
900.799	195.558
900.927	192.087
901.055	199.750
901.183	201.462
901.312	204.067
901.440	189.394
901.568	191.625
901.696	195.308
901.824	191.644
901.952	190.933
902.080	197.038
902.208	198.154
902.337	201.404
902.465	193.981
902.593	210.269
902.721	216.981
902.849	213.683
902.977	198.519
903.105	194.885
903.233	195.654
903.362	187.692
903.490	198.029
903.618	196.010
903.746	190.894
903.874	195.106
904.002	190.154
904.130	203.740
904.258	182.567
904.387	198.587
904.515	186.712
904.643	198.798
904.771	188.298
904.899	188.163
905.027	192.769
905.155	189.615
905.283	182.663
905.412	208.433
905.540	193.817
905.668	188.856
905.796	191.087
905.924	191.115
906.052	192.385
906.180	197.058
906.308	189.433
906.437	187.096
906.565	192.269
906.693	197.923
906.821	182.010
906.949	190.721
907.077	184.385
907.205	196.885
907.333	182.827
907.462	188.596
907.590	189.760
907.718	189.087
907.846	195.788
907.974	186.923
908.102	189.144
908.230	193.231
908.358	188.798
908.487	185.827
908.615	199.019
908.743	200.087
908.871	191.106
908.999	181.721
909.127	187.760
909.255	196.885
909.383	186.010
909.512	182.577
909.640	199.163
909.768	190.702
909.896	190.192
910.024	197.654
910.152	198.212
910.280	194.365
910.408	183.913
910.537	185.029
910.665	195.990
910.793	192.135
910.921	191.067
911.049	196.654
911.177	199.981
911.305	190.596
911.433	212.240
911.562	197.933
911.690	192.000
911.818	195.212
911.946	190.577
912.074	201.067
912.202	185.154
912.330	208.077
912.458	185.923
912.587	193.183
912.715	195.875
912.843	207.846
912.971	194.173
913.099	211.933
913.227	198.750
913.355	196.260
913.483	204.260
913.612	206.173
913.740	223.471
913.868	195.990
