90_140_90_Pol_at_750.00nm_cut_at_1179.00Y_01.dat
03.07.2023
11:35:21
cut middle at Y: 1179.00
top cursor: 1231 down cursor: 1127 mean of: 104 lines , 2560 datapoints
wavelength(nm)	intensity[arb. units]
585.996	10162.798
586.124	9979.971
586.252	9944.269
586.380	9949.394
586.508	9972.596
586.637	10079.413
586.765	10020.519
586.893	10039.654
587.021	10125.779
587.149	10084.356
587.277	10110.308
587.405	10119.904
587.533	10191.462
587.662	10260.683
587.790	10188.087
587.918	10204.317
588.046	10173.702
588.174	10238.702
588.302	10184.808
588.430	10265.481
588.558	10245.106
588.687	10248.942
588.815	10283.404
588.943	10262.250
589.071	10253.712
589.199	10240.029
589.327	10265.490
589.455	10332.231
589.583	10268.269
589.712	10243.721
589.840	10233.923
589.968	10216.000
590.096	10260.577
590.224	10227.413
590.352	10321.471
590.480	10233.731
590.608	10222.192
590.737	10274.481
590.865	10355.808
590.993	10227.413
591.121	10267.240
591.249	10236.990
591.377	10242.394
591.505	10359.712
591.633	10248.673
591.762	10227.942
591.890	10286.087
592.018	10350.163
592.146	10296.606
592.274	10274.106
592.402	10258.029
592.530	10455.510
592.658	10325.865
592.787	10364.885
592.915	10402.654
593.043	10310.779
593.171	10370.894
593.299	10364.192
593.427	10346.317
593.555	10388.125
593.683	10360.548
593.812	10393.981
593.940	10383.115
594.068	10415.019
594.196	10397.404
594.324	10453.596
594.452	10715.000
594.580	10497.471
594.708	10576.683
594.837	10536.952
594.965	10658.327
595.093	10591.317
595.221	10672.913
595.349	10653.981
595.477	10660.471
595.605	10707.721
595.733	10712.692
595.862	10721.365
595.990	10762.673
596.118	10799.904
596.246	10862.087
596.374	10801.433
596.502	10830.288
596.630	10835.038
596.758	10842.048
596.887	10807.837
597.015	10854.221
597.143	10864.923
597.271	10861.240
597.399	10908.933
597.527	10903.067
597.655	10869.529
597.783	10892.500
597.912	10915.673
598.040	10954.760
598.168	10909.837
598.296	10863.548
598.424	11089.500
598.552	10862.606
598.680	10886.635
598.808	10969.019
598.937	10916.981
599.065	10887.913
599.193	10944.221
599.321	10976.779
599.449	10887.067
599.577	10864.260
599.705	10895.625
599.833	10880.990
599.962	10854.221
600.090	10881.904
600.218	10894.856
600.346	10873.125
600.474	10850.500
600.602	10812.471
600.730	10840.827
600.858	10812.106
600.987	10930.760
601.115	10848.625
601.243	10938.337
601.371	10978.923
601.499	10928.721
601.627	10935.779
601.755	10911.087
601.883	10950.365
602.012	10870.558
602.140	10985.644
602.268	10964.144
602.396	11098.865
602.524	10983.990
602.652	11074.490
602.780	11068.010
602.908	11085.404
603.037	11120.087
603.165	11152.365
603.293	11141.346
603.421	11198.615
603.549	11203.731
603.677	11243.663
603.805	11258.779
603.933	11312.673
604.062	11342.596
604.190	11418.981
604.318	11425.529
604.446	11397.510
604.574	11518.433
604.702	11532.385
604.830	11490.000
604.958	11513.308
605.087	11623.183
605.215	11635.827
605.343	11759.135
605.471	11701.529
605.599	11724.510
605.727	11807.452
605.855	11820.712
605.983	11829.365
606.112	11868.471
606.240	11897.327
606.368	11907.644
606.496	11865.202
606.624	11968.865
606.752	11934.981
606.880	11987.558
607.008	11977.279
607.137	11964.298
607.265	12083.779
607.393	12036.048
607.521	12104.952
607.649	12021.587
607.777	12035.808
607.905	12056.663
608.033	12012.673
608.162	12045.212
608.290	12043.837
608.418	12140.712
608.546	12107.692
608.674	12140.260
608.802	12047.981
608.930	12059.865
609.058	12045.058
609.187	12057.048
609.315	12009.673
609.443	12034.058
609.571	12114.404
609.699	11999.702
609.827	12082.846
609.955	12058.692
610.083	11943.760
610.212	11969.952
610.340	11922.865
610.468	11968.692
610.596	11960.740
610.724	11932.692
610.852	11948.087
610.980	11962.760
611.108	11905.875
611.237	11922.760
611.365	11907.221
611.493	11909.712
611.621	11919.346
611.749	11913.135
611.877	11996.644
612.005	11925.260
612.133	11948.913
612.262	11955.952
612.390	11988.625
612.518	12042.654
612.646	11978.163
612.774	12042.462
612.902	12066.808
613.030	12038.942
613.158	12008.577
613.287	12117.269
613.415	11981.779
613.543	12056.923
613.671	12103.692
613.799	12108.567
613.927	12117.240
614.055	12161.865
614.183	12159.010
614.312	12124.356
614.440	12303.144
614.568	12242.394
614.696	12319.115
614.824	12265.125
614.952	12319.712
615.080	12308.298
615.208	12394.654
615.337	12454.740
615.465	12369.788
615.593	12462.462
615.721	12446.212
615.849	12543.769
615.977	12461.308
616.105	12532.567
616.233	12510.192
616.362	12562.760
616.490	12565.683
616.618	12620.154
616.746	12752.279
616.874	12692.702
617.002	12719.356
617.130	12704.183
617.258	12698.125
617.387	12732.538
617.515	12753.654
617.643	12749.942
617.771	12873.115
617.899	12773.731
618.027	12860.769
618.155	12864.865
618.283	12839.433
618.412	12845.385
618.540	12956.837
618.668	12899.673
618.796	12921.115
618.924	12878.712
619.052	12923.769
619.180	12884.548
619.308	12865.365
619.437	12907.798
619.565	12913.702
619.693	12897.538
619.821	12923.702
619.949	12857.692
620.077	12911.154
620.205	12921.683
620.333	12939.760
620.462	12877.269
620.590	12967.625
620.718	12975.558
620.846	12955.865
620.974	12930.663
621.102	12999.356
621.230	12947.260
621.358	13095.212
621.487	12926.442
621.615	12947.596
621.743	12872.712
621.871	12956.885
621.999	12835.452
622.127	12907.596
622.255	12848.183
622.383	12865.904
622.512	12854.481
622.640	12844.452
622.768	12915.577
622.896	12921.029
623.024	12923.510
623.152	12841.087
623.280	12931.452
623.408	12867.721
623.537	12908.644
623.665	12852.894
623.793	12905.933
623.921	12872.817
624.049	12860.327
624.177	12827.702
624.305	12875.490
624.433	12894.856
624.562	12849.721
624.690	12972.683
624.818	12799.288
624.946	12829.760
625.074	12824.192
625.202	12802.135
625.330	12809.019
625.458	12908.413
625.587	12822.510
625.715	12880.971
625.843	12828.981
625.971	12837.683
626.099	12850.558
626.227	12849.442
626.355	12800.288
626.483	12890.212
626.612	12802.413
626.740	12886.933
626.868	12797.471
626.996	12908.769
627.124	12843.038
627.252	12820.058
627.380	12820.615
627.508	12816.702
627.637	12876.731
627.765	12877.394
627.893	12872.788
628.021	12969.856
628.149	12823.885
628.277	12951.721
628.405	12890.625
628.533	12939.019
628.662	12938.019
628.790	13030.115
628.918	12949.788
629.046	13066.000
629.174	12950.058
629.302	12994.702
629.430	12958.000
629.558	12990.298
629.687	12950.808
629.815	13031.221
629.943	13129.654
630.071	13076.837
630.199	13056.673
630.327	13094.663
630.455	13098.769
630.583	13077.769
630.712	13106.269
630.840	13170.529
630.968	13125.317
631.096	13148.433
631.224	13133.942
631.352	13263.644
631.480	13161.827
631.608	13320.433
631.737	13152.567
631.865	13319.865
631.993	13261.769
632.121	13425.750
632.249	13280.587
632.377	13237.779
632.505	13250.250
632.633	13273.298
632.762	13230.692
632.890	13238.846
633.018	13262.885
633.146	13266.115
633.274	13213.404
633.402	13223.144
633.530	13207.375
633.658	13232.058
633.787	13252.481
633.915	13218.740
634.043	13245.885
634.171	13231.615
634.299	13216.038
634.427	13208.500
634.555	13458.702
634.683	13227.173
634.812	13183.125
634.940	13172.933
635.068	13164.769
635.196	13176.308
635.324	13155.288
635.452	13135.779
635.580	13221.827
635.708	13061.587
635.837	13081.894
635.965	13050.827
636.093	13034.990
636.221	13023.673
636.349	12919.760
636.477	12946.029
636.605	13010.317
636.733	12933.529
636.862	12901.029
636.990	12912.260
637.118	12878.519
637.246	12824.923
637.374	12973.663
637.502	12730.038
637.630	12788.712
637.758	12761.865
637.887	12707.481
638.015	12826.288
638.143	12718.385
638.271	12625.635
638.399	12701.163
638.527	12602.279
638.655	12601.144
638.783	12589.856
638.912	12627.712
639.040	12522.885
639.168	12511.567
639.296	12475.894
639.424	12550.519
639.552	12474.923
639.680	12502.837
639.808	12478.135
639.937	12423.067
640.065	12383.298
640.193	12373.298
640.321	12486.596
640.449	12442.750
640.577	12381.596
640.705	12383.519
640.833	12366.779
640.962	12444.404
641.090	12330.548
641.218	12360.029
641.346	12389.904
641.474	12329.769
641.602	12347.798
641.730	12326.558
641.858	12277.577
641.987	12295.423
642.115	12448.663
642.243	12282.269
642.371	12472.846
642.499	12300.798
642.627	12382.173
642.755	12301.067
642.883	12281.760
643.012	12299.096
643.140	12352.240
643.268	12343.288
643.396	12260.721
643.524	12318.077
643.652	12365.846
643.780	12264.740
643.908	12263.500
644.037	12355.452
644.165	12369.769
644.293	12502.740
644.421	12252.192
644.549	12328.712
644.677	12360.577
644.805	12264.327
644.933	12286.202
645.062	12287.288
645.190	12450.837
645.318	12330.808
645.446	12235.365
645.574	12237.798
645.702	12295.337
645.830	12254.558
645.958	12212.683
646.087	12198.490
646.215	12181.548
646.343	12206.962
646.471	12390.760
646.599	12188.125
646.727	12171.375
646.855	12200.990
646.983	12159.279
647.112	12241.250
647.240	12151.990
647.368	12208.567
647.496	12142.808
647.624	12132.798
647.752	12111.519
647.880	12086.635
648.008	12106.971
648.137	12162.423
648.265	12055.077
648.393	12155.231
648.521	12021.798
648.649	12165.702
648.777	12071.317
648.905	12031.375
649.033	12088.644
649.162	11942.981
649.290	11859.221
649.418	11916.490
649.546	12063.038
649.674	11908.712
649.802	11864.990
649.930	11820.019
650.058	11771.048
650.187	11836.894
650.315	11744.856
650.443	11767.308
650.571	11693.760
650.699	11662.462
650.827	11668.875
650.955	11633.673
651.083	11712.837
651.212	11604.731
651.340	11592.788
651.468	11551.404
651.596	11531.837
651.724	11570.356
651.852	11476.760
651.980	11482.702
652.108	11483.606
652.237	11473.548
652.365	11404.981
652.493	11397.067
652.621	11401.346
652.749	11343.962
652.877	11328.154
653.005	11363.154
653.133	11263.250
653.262	11264.827
653.390	11207.192
653.518	11339.529
653.646	11167.567
653.774	11155.115
653.902	11222.673
654.030	11179.279
654.158	11092.212
654.287	11131.731
654.415	11069.510
654.543	11121.279
654.671	11042.500
654.799	11038.981
654.927	11000.442
655.055	10955.375
655.183	10937.837
655.312	10951.856
655.440	10889.250
655.568	10909.942
655.696	10945.721
655.824	10891.587
655.952	10838.865
656.080	10784.096
656.208	10822.163
656.337	10822.865
656.465	10925.279
656.593	10745.577
656.721	10833.481
656.849	10823.308
656.977	10625.740
657.105	10675.183
657.233	10685.163
657.362	10715.519
657.490	10652.000
657.618	10618.048
657.746	10593.712
657.874	10498.962
658.002	10499.154
658.130	10417.510
658.258	10442.452
658.387	10361.779
658.515	10388.952
658.643	10368.385
658.771	10393.827
658.899	10307.644
659.027	10307.558
659.155	10324.962
659.283	10226.990
659.412	10247.404
659.540	10216.183
659.668	10263.356
659.796	10313.481
659.924	10249.327
660.052	10323.635
660.180	10222.481
660.308	10280.654
660.437	10235.962
660.565	10179.029
660.693	10049.702
660.821	10240.298
660.949	10075.981
661.077	10091.750
661.205	10191.010
661.333	10036.279
661.462	9976.808
661.590	10106.644
661.718	9991.654
661.846	9980.577
661.974	9936.731
662.102	9936.529
662.230	9943.933
662.358	9800.433
662.487	9886.702
662.615	9833.990
662.743	9869.788
662.871	9855.394
662.999	9759.538
663.127	9734.990
663.255	9742.077
663.383	9858.010
663.512	9655.760
663.640	9706.096
663.768	9719.288
663.896	9661.510
664.024	9634.404
664.152	9647.885
664.280	9699.337
664.408	9605.048
664.537	9559.365
664.665	9609.644
664.793	9573.029
664.921	9531.615
665.049	9578.442
665.177	9486.673
665.305	9511.135
665.433	9504.913
665.562	9635.481
665.690	9480.788
665.818	9596.375
665.946	9376.067
666.074	9399.798
666.202	9376.327
666.330	9330.817
666.458	9764.510
666.587	9358.356
666.715	9349.231
666.843	9313.731
666.971	9304.846
667.099	9332.346
667.227	9349.952
667.355	9333.115
667.483	9256.683
667.612	9276.087
667.740	9243.760
667.868	9186.538
667.996	9185.721
668.124	9254.654
668.252	9303.221
668.380	9154.471
668.508	9161.683
668.637	9121.885
668.765	9151.058
668.893	9106.442
669.021	9038.731
669.149	9132.817
669.277	9020.135
669.405	9163.231
669.533	9094.250
669.662	9042.683
669.790	8985.962
669.918	8986.154
670.046	9147.154
670.174	8930.279
670.302	8878.769
670.430	8865.798
670.558	8945.269
670.687	9049.115
670.815	8864.173
670.943	8883.144
671.071	8753.058
671.199	8748.779
671.327	8779.087
671.455	8766.452
671.583	8706.048
671.712	8704.125
671.840	8785.394
671.968	8836.683
672.096	8800.519
672.224	8572.577
672.352	8572.981
672.480	8547.731
672.608	8571.913
672.737	8514.029
672.865	8466.529
672.993	8487.337
673.121	8438.587
673.249	8423.029
673.377	8392.635
673.505	8361.663
673.633	8428.423
673.762	8328.692
673.890	8350.644
674.018	8349.375
674.146	8277.923
674.274	8255.942
674.402	8315.587
674.530	8241.500
674.658	8168.058
674.787	8137.808
674.915	8292.356
675.043	8123.019
675.171	8122.788
675.299	8035.865
675.427	8008.683
675.555	8040.529
675.683	8025.288
675.812	7976.894
675.940	7944.067
676.068	7885.394
676.196	7937.587
676.324	7876.038
676.452	7808.913
676.580	7800.740
676.708	7761.538
676.837	7782.683
676.965	7883.394
677.093	7877.663
677.221	7739.433
677.349	7655.144
677.477	7737.087
677.605	7615.635
677.733	7617.000
677.862	7601.269
677.990	7589.606
678.118	7635.413
678.246	7546.663
678.374	7589.452
678.502	7501.250
678.630	7432.519
678.758	7444.327
678.887	7601.846
679.015	7350.471
679.143	7340.625
679.271	7318.865
679.399	7328.240
679.527	7310.692
679.655	7342.404
679.783	7247.683
679.912	7230.538
680.040	7414.058
680.168	7210.125
680.296	7189.250
680.424	7164.837
680.552	7141.029
680.680	7099.327
680.808	7081.865
680.937	7039.125
681.065	7115.346
681.193	7042.663
681.321	6994.894
681.449	7051.375
681.577	7002.250
681.705	6970.135
681.833	6979.731
681.962	6941.452
682.090	6899.260
682.218	6915.760
682.346	6913.000
682.474	6836.558
682.602	6821.163
682.730	6901.327
682.858	6814.096
682.987	6825.673
683.115	6828.106
683.243	6760.529
683.371	6765.212
683.499	6714.683
683.627	6766.404
683.755	6731.740
683.883	6689.596
684.012	6724.692
684.140	6656.288
684.268	6660.087
684.396	6702.827
684.524	6628.144
684.652	6640.635
684.780	6653.135
684.908	6637.625
685.037	6621.837
685.165	6604.692
685.293	6660.760
685.421	6610.981
685.549	6565.933
685.677	6505.933
685.805	6539.010
685.933	6511.192
686.062	6506.298
686.190	6462.298
686.318	6458.000
686.446	6434.817
686.574	6395.817
686.702	6447.740
686.830	6366.279
686.958	6453.385
687.087	6348.519
687.215	6374.029
687.343	6356.365
687.471	6504.010
687.599	6274.192
687.727	6278.654
687.855	6239.067
687.983	6220.125
688.112	6240.413
688.240	6202.558
688.368	6236.202
688.496	6182.692
688.624	6122.529
688.752	6303.510
688.880	6155.548
689.008	6130.731
689.137	6113.933
689.265	6056.298
689.393	6064.606
689.521	6061.615
689.649	6121.904
689.777	6054.923
689.905	6083.413
690.033	5949.298
690.162	5993.548
690.290	6017.481
690.418	5928.885
690.546	5991.212
690.674	5976.731
690.802	5958.529
690.930	5906.096
691.058	5917.990
691.187	5851.875
691.315	5828.163
691.443	5781.981
691.571	5823.856
691.699	5783.452
691.827	5757.029
691.955	5757.510
692.083	5727.740
692.212	5734.490
692.340	5691.548
692.468	5725.587
692.596	5700.000
692.724	5651.442
692.852	5688.221
692.980	5685.298
693.108	5697.077
693.237	5565.635
693.365	5567.769
693.493	5545.000
693.621	5551.471
693.749	5500.183
693.877	5553.077
694.005	5456.779
694.133	5474.240
694.262	5505.788
694.390	5391.173
694.518	5415.904
694.646	5392.279
694.774	5345.096
694.902	5352.346
695.030	5334.577
695.158	5332.087
695.287	5312.288
695.415	5283.375
695.543	5295.135
695.671	5202.750
695.799	5328.269
695.927	5233.048
696.055	5255.019
696.183	5170.721
696.312	5338.279
696.440	5175.538
696.568	5169.548
696.696	5073.702
696.824	5047.038
696.952	5061.269
697.080	5063.327
697.208	4989.519
697.337	4995.317
697.465	4990.067
697.593	4923.644
697.721	5048.683
697.849	4938.654
697.977	4968.519
698.105	4968.375
698.233	4940.644
698.362	4852.115
698.490	4965.558
698.618	4810.702
698.746	4778.231
698.874	4875.346
699.002	4814.317
699.130	4815.865
699.258	4755.173
699.387	4686.942
699.515	4741.087
699.643	4740.058
699.771	4794.327
699.899	4661.385
700.027	4622.019
700.155	4691.135
700.283	4587.385
700.412	4598.471
700.540	4610.760
700.668	4645.154
700.796	4528.442
700.924	4584.413
701.052	4570.279
701.180	4570.250
701.308	4462.298
701.437	4417.952
701.565	4443.731
701.693	4479.663
701.821	4616.471
701.949	4367.481
702.077	4395.394
702.205	4450.510
702.333	4370.173
702.462	4323.115
702.590	4369.865
702.718	4266.231
702.846	4476.327
702.974	4254.462
703.102	4236.000
703.230	4280.096
703.358	4201.183
703.487	4213.558
703.615	4189.250
703.743	4155.663
703.871	4161.587
703.999	4148.423
704.127	4120.010
704.255	4091.952
704.383	4117.308
704.512	4147.327
704.640	4114.067
704.768	4154.942
704.896	4014.067
705.024	3954.817
705.152	3996.654
705.280	4027.212
705.408	3934.875
705.537	3929.231
705.665	3914.702
705.793	3903.760
705.921	3888.500
706.049	3850.404
706.177	3893.375
706.305	3825.019
706.433	3864.163
706.562	3828.308
706.690	3829.269
706.818	3819.154
706.946	3746.827
707.074	3720.837
707.202	3690.394
707.330	3706.048
707.458	3689.240
707.587	3657.154
707.715	3690.404
707.843	3691.269
707.971	3675.933
708.099	3593.337
708.227	3579.058
708.355	3596.413
708.483	3566.327
708.612	3578.615
708.740	3527.827
708.868	3528.433
708.996	3593.173
709.124	3577.038
709.252	3501.308
709.380	3518.663
709.508	3477.606
709.637	3501.077
709.765	3450.692
709.893	3493.865
710.021	3411.240
710.149	3510.615
710.277	3371.962
710.405	3396.058
710.533	3382.596
710.662	3363.615
710.790	3469.471
710.918	3325.635
711.046	3384.538
711.174	3315.173
711.302	3348.510
711.430	3305.163
711.558	3343.269
711.687	3303.538
711.815	3264.471
711.943	3242.952
712.071	3232.567
712.199	3259.673
712.327	3314.404
712.455	3181.038
712.583	3372.269
712.712	3204.923
712.840	3237.154
712.968	3166.702
713.096	3154.933
713.224	3149.462
713.352	3133.692
713.480	3088.010
713.608	3081.154
713.737	3051.817
713.865	3107.337
713.993	3089.760
714.121	3061.596
714.249	3015.298
714.377	3001.740
714.505	3006.462
714.633	2999.202
714.762	2977.538
714.890	3003.577
715.018	2968.538
715.146	3006.462
715.274	2957.125
715.402	2944.981
715.530	2921.269
715.658	2955.750
715.787	2932.644
715.915	3024.885
716.043	2907.240
716.171	3030.385
716.299	2839.356
716.427	2938.298
716.555	2842.548
716.683	2836.865
716.812	2827.462
716.940	2812.077
717.068	2789.740
717.196	2986.087
717.324	2790.644
717.452	2782.529
717.580	2836.510
717.708	2757.173
717.837	2766.587
717.965	2788.615
718.093	2739.923
718.221	2766.260
718.349	2810.058
718.477	2699.904
718.605	2787.010
718.733	2698.183
718.862	2748.663
718.990	2691.067
719.118	2742.010
719.246	2662.510
719.374	2659.558
719.502	2695.635
719.630	2760.115
719.758	2651.750
719.887	2629.731
720.015	2659.692
720.143	2661.096
720.271	2623.144
720.399	2634.788
720.527	2611.548
720.655	2633.471
720.783	2595.019
720.912	2585.067
721.040	2587.471
721.168	2596.115
721.296	2559.846
721.424	2568.827
721.552	2544.087
721.680	2548.481
721.808	2550.894
721.937	2534.750
722.065	2512.240
722.193	2505.635
722.321	2518.019
722.449	2504.548
722.577	2468.087
722.705	2463.221
722.833	2451.288
722.962	2448.952
723.090	2435.913
723.218	2411.192
723.346	2429.990
723.474	2409.577
723.602	2389.413
723.730	2384.269
723.858	2368.885
723.987	2393.798
724.115	2380.115
724.243	2362.981
724.371	2331.798
724.499	2349.106
724.627	2316.096
724.755	2328.250
724.883	2335.125
725.012	2326.442
725.140	2302.279
725.268	2287.144
725.396	2255.269
725.524	2286.981
725.652	2238.615
725.780	2259.846
725.908	2250.673
726.037	2217.981
726.165	2220.385
726.293	2204.394
726.421	2191.173
726.549	2226.087
726.677	2189.587
726.805	2183.904
726.933	2168.433
727.062	2156.644
727.190	2137.490
727.318	2112.846
727.446	2128.240
727.574	2111.990
727.702	2087.760
727.830	2116.558
727.958	2110.712
728.087	2101.760
728.215	2090.500
728.343	2062.577
728.471	2055.269
728.599	2067.663
728.727	2048.644
728.855	2040.971
728.983	2019.000
729.112	2007.365
729.240	2007.558
729.368	2007.212
729.496	2002.962
729.624	1998.442
729.752	1986.519
729.880	1987.740
730.008	1973.010
730.137	1968.510
730.265	1961.904
730.393	1968.154
730.521	1954.269
730.649	1928.548
730.777	1914.192
730.905	1922.952
731.033	1883.510
731.162	1912.183
731.290	1909.644
731.418	1898.596
731.546	1886.971
731.674	1869.692
731.802	1865.808
731.930	1874.894
732.058	1847.558
732.187	1848.846
732.315	1859.250
732.443	1854.106
732.571	1846.269
732.699	1824.154
732.827	1841.462
732.955	1826.558
733.083	1809.077
733.212	1817.673
733.340	1819.462
733.468	1789.385
733.596	1775.269
733.724	1772.779
733.852	1772.490
733.980	1763.750
734.108	1781.106
734.237	1753.635
734.365	1766.221
734.493	1744.221
734.621	1742.538
734.749	1734.587
734.877	1716.548
735.005	1710.683
735.133	1724.894
735.262	1720.913
735.390	1700.567
735.518	1707.125
735.646	1700.760
735.774	1694.865
735.902	1694.183
736.030	1676.837
736.158	1679.240
736.287	1683.298
736.415	1675.317
736.543	1649.712
736.671	1636.952
736.799	1656.019
736.927	1652.481
737.055	1641.096
737.183	1626.317
737.312	1621.019
737.440	1614.750
737.568	1610.712
737.696	1606.346
737.824	1610.394
737.952	1817.952
738.080	1593.481
738.208	1595.183
738.337	1577.971
738.465	1576.327
738.593	1565.490
738.721	1566.269
738.849	1584.990
738.977	1557.212
739.105	1580.471
739.233	1560.519
739.362	1544.731
739.490	1534.760
739.618	1534.144
739.746	1525.933
739.874	1515.635
740.002	1537.740
740.130	1503.817
740.258	1497.635
740.387	1508.462
740.515	1514.346
740.643	1474.452
740.771	1488.981
740.899	1491.125
741.027	1476.250
741.155	1471.048
741.283	1468.346
741.412	1478.962
741.540	1456.308
741.668	1443.750
741.796	1463.298
741.924	1442.183
742.052	1434.471
742.180	1439.346
742.308	1423.904
742.437	1428.163
742.565	1429.962
742.693	1432.500
742.821	1416.231
742.949	1401.837
743.077	1383.365
743.205	1382.298
743.333	1383.577
743.462	1385.221
743.590	1377.442
743.718	1374.519
743.846	1373.875
743.974	1403.798
744.102	1368.346
744.230	1367.952
744.358	1367.731
744.487	1341.644
744.615	1337.385
744.743	1341.202
744.871	1329.750
744.999	1318.846
745.127	1317.731
745.255	1304.365
745.383	1308.317
745.512	1298.971
745.640	1306.885
745.768	1300.702
745.896	1293.548
746.024	1288.404
746.152	1291.865
746.280	1294.067
746.408	1292.260
746.537	1263.192
746.665	1283.452
746.793	1258.865
746.921	1247.635
747.049	1265.596
747.177	1256.452
747.305	1265.558
747.433	1248.846
747.562	1236.635
747.690	1237.163
747.818	1224.933
747.946	1227.558
748.074	1216.683
748.202	1218.865
748.330	1203.173
748.458	1198.750
748.587	1203.423
748.715	1201.654
748.843	1192.240
748.971	1190.308
749.099	1205.058
749.227	1195.952
749.355	1207.750
749.483	1165.894
749.612	1185.817
749.740	1172.529
749.868	1167.029
749.996	1166.212
750.124	1173.731
750.252	1142.952
750.380	1155.183
750.508	1158.596
750.637	1149.144
750.765	1145.442
750.893	1140.163
751.021	1133.654
751.149	1138.846
751.277	1115.615
751.405	1108.913
751.533	1134.125
751.662	1115.721
751.790	1100.923
751.918	1099.038
752.046	1091.394
752.174	1086.010
752.302	1077.288
752.430	1073.846
752.558	1075.981
752.687	1073.385
752.815	1067.808
752.943	1057.981
753.071	1058.000
753.199	1074.452
753.327	1083.106
753.455	1045.375
753.583	1039.019
753.712	1033.635
753.840	1058.500
753.968	1035.413
754.096	1046.567
754.224	1031.721
754.352	1015.279
754.480	1039.827
754.608	1013.558
754.737	1021.846
754.865	1023.000
754.993	1018.173
755.121	1011.865
755.249	989.990
755.377	976.240
755.505	994.269
755.633	986.827
755.762	981.846
755.890	992.115
756.018	982.144
756.146	972.817
756.274	958.510
756.402	959.356
756.530	977.135
756.658	970.923
756.787	944.808
756.915	944.817
757.043	930.423
757.171	942.567
757.299	941.183
757.427	923.846
757.555	929.471
757.683	926.288
757.812	931.481
757.940	919.308
758.068	915.183
758.196	914.769
758.324	901.952
758.452	902.577
758.580	897.077
758.708	898.558
758.837	913.048
758.965	919.673
759.093	899.913
759.221	873.250
759.349	880.798
759.477	877.010
759.605	866.183
759.733	877.904
759.862	859.760
759.990	860.250
760.118	859.250
760.246	862.663
760.374	864.990
760.502	857.115
760.630	844.327
760.758	846.702
760.887	842.712
761.015	837.529
761.143	845.933
761.271	839.250
761.399	816.317
761.527	832.894
761.655	831.481
761.783	816.875
761.912	814.288
762.040	819.442
762.168	806.231
762.296	807.404
762.424	804.981
762.552	804.058
762.680	785.760
762.808	811.837
762.937	798.010
763.065	781.048
763.193	769.548
763.321	775.375
763.449	779.904
763.577	767.596
763.705	785.990
763.833	774.308
763.962	761.788
764.090	756.731
764.218	753.144
764.346	747.029
764.474	748.510
764.602	751.538
764.730	751.077
764.858	755.538
764.987	742.625
765.115	741.067
765.243	727.644
765.371	725.471
765.499	724.875
765.627	722.317
765.755	730.087
765.883	717.692
766.012	712.413
766.140	711.356
766.268	707.394
766.396	711.808
766.524	723.635
766.652	704.269
766.780	702.433
766.908	703.635
767.037	718.096
767.165	700.481
767.293	696.231
767.421	697.221
767.549	676.106
767.677	705.115
767.805	680.712
767.933	680.365
768.062	670.144
768.190	672.067
768.318	670.250
768.446	661.404
768.574	656.038
768.702	667.202
768.830	662.125
768.958	655.356
769.087	671.019
769.215	653.106
769.343	658.010
769.471	667.221
769.599	644.798
769.727	650.115
769.855	641.750
769.983	670.635
770.112	639.173
770.240	634.865
770.368	623.808
770.496	628.077
770.624	638.827
770.752	627.827
770.880	636.202
771.008	622.038
771.137	619.519
771.265	612.692
771.393	608.048
771.521	610.808
771.649	625.308
771.777	640.673
771.905	665.904
772.033	644.144
772.162	604.135
772.290	602.346
772.418	608.654
772.546	603.442
772.674	599.846
772.802	589.529
772.930	593.817
773.058	593.606
773.187	587.538
773.315	580.269
773.443	591.808
773.571	579.933
773.699	578.404
773.827	589.981
773.955	600.423
774.083	580.538
774.212	576.385
774.340	573.760
774.468	570.683
774.596	568.827
774.724	572.481
774.852	576.250
774.980	564.731
775.108	557.096
775.237	547.462
775.365	558.404
775.493	553.144
775.621	551.788
775.749	554.692
775.877	558.971
776.005	548.817
776.133	543.500
776.262	548.481
776.390	543.279
776.518	536.577
776.646	545.635
776.774	540.683
776.902	534.635
777.030	527.635
777.158	533.808
777.287	539.346
777.415	526.442
777.543	529.442
777.671	530.019
777.799	526.240
777.927	528.452
778.055	531.885
778.183	521.779
778.312	519.375
778.440	514.952
778.568	533.808
778.696	525.500
778.824	518.058
778.952	516.990
779.080	514.356
779.208	512.394
779.337	509.346
779.465	515.125
779.593	505.548
779.721	507.154
779.849	503.423
779.977	503.663
780.105	497.106
780.233	499.202
780.362	492.817
780.490	486.087
780.618	493.981
780.746	487.808
780.874	488.760
781.002	494.135
781.130	485.433
781.258	479.981
781.387	490.365
781.515	483.433
781.643	475.356
781.771	479.452
781.899	484.154
782.027	475.519
782.155	474.625
782.283	468.913
782.412	485.933
782.540	475.010
782.668	472.154
782.796	469.413
782.924	479.721
783.052	473.337
783.180	468.433
783.308	466.144
783.437	457.404
783.565	471.423
783.693	462.308
783.821	460.808
783.949	460.971
784.077	455.865
784.205	458.894
784.333	450.712
784.462	455.856
784.590	446.875
784.718	443.538
784.846	451.077
784.974	462.490
785.102	442.337
785.230	449.625
785.358	434.529
785.487	437.404
785.615	438.038
785.743	434.904
785.871	446.413
785.999	444.808
786.127	442.731
786.255	430.990
786.383	437.010
786.512	434.644
786.640	436.010
786.768	420.913
786.896	422.894
787.024	421.115
787.152	423.346
787.280	437.192
787.408	428.481
787.537	428.981
787.665	433.096
787.793	419.375
787.921	418.010
788.049	413.183
788.177	416.308
788.305	413.779
788.433	416.567
788.562	411.894
788.690	411.423
788.818	417.798
788.946	407.385
789.074	399.808
789.202	399.067
789.330	401.298
789.458	411.154
789.587	405.269
789.715	405.481
789.843	402.933
789.971	401.221
790.099	394.846
790.227	388.865
790.355	391.971
790.483	399.356
790.612	398.375
790.740	398.481
790.868	395.231
790.996	404.048
791.124	405.048
791.252	392.769
791.380	385.721
791.508	391.923
791.637	391.894
791.765	378.202
791.893	381.721
792.021	390.433
792.149	384.192
792.277	381.135
792.405	374.250
792.533	383.337
792.662	374.990
792.790	381.625
792.918	391.221
793.046	371.106
793.174	379.038
793.302	368.481
793.430	362.481
793.558	375.587
793.687	376.808
793.815	364.933
793.943	381.548
794.071	363.308
794.199	365.077
794.327	367.885
794.455	371.587
794.583	369.577
794.712	363.808
794.840	361.087
794.968	365.606
795.096	373.183
795.224	351.683
795.352	394.433
795.480	349.558
795.608	346.548
795.737	350.894
795.865	347.087
795.993	358.346
796.121	353.596
796.249	345.788
796.377	351.481
796.505	348.221
796.633	350.298
796.762	344.740
796.890	339.010
797.018	341.269
797.146	347.971
797.274	350.260
797.402	340.048
797.530	334.942
797.658	334.462
797.787	355.740
797.915	340.702
798.043	332.846
798.171	338.865
798.299	328.404
798.427	339.519
798.555	346.337
798.683	329.827
798.812	361.952
798.940	375.846
799.068	360.952
799.196	336.298
799.324	335.913
799.452	324.106
799.580	324.942
799.708	330.769
799.837	323.692
799.965	323.038
800.093	320.500
800.221	319.240
800.349	319.135
800.477	310.356
800.605	314.288
800.733	325.365
800.862	317.221
800.990	315.712
801.118	318.231
801.246	319.481
801.374	322.288
801.502	314.154
801.630	313.279
801.758	312.702
801.887	301.115
802.015	311.644
802.143	302.135
802.271	304.817
802.399	301.615
802.527	299.250
802.655	304.885
802.783	305.337
802.912	300.442
803.040	299.337
803.168	298.760
803.296	304.385
803.424	294.481
803.552	302.731
803.680	299.923
803.808	294.337
803.937	293.885
804.065	296.183
804.193	297.067
804.321	315.894
804.449	313.337
804.577	302.538
804.705	312.048
804.833	298.644
804.962	292.865
805.090	293.356
805.218	288.760
805.346	288.606
805.474	304.298
805.602	294.346
805.730	300.058
805.858	280.837
805.987	282.106
806.115	284.481
806.243	291.981
806.371	287.548
806.499	285.731
806.627	278.519
806.755	281.913
806.883	286.654
807.012	279.635
807.140	288.385
807.268	271.644
807.396	281.769
807.524	282.019
807.652	286.952
807.780	275.673
807.908	277.356
808.037	290.452
808.165	285.442
808.293	275.067
808.421	274.942
808.549	269.692
808.677	277.240
808.805	292.423
808.933	275.615
809.062	273.625
809.190	287.490
809.318	279.952
809.446	271.587
809.574	281.490
809.702	270.817
809.830	264.019
809.958	274.750
810.087	270.288
810.215	268.500
810.343	275.644
810.471	268.538
810.599	267.077
810.727	268.923
810.855	263.077
810.983	265.606
811.112	266.683
811.240	264.663
811.368	264.298
811.496	269.433
811.624	264.115
811.752	267.740
811.880	280.154
812.008	270.529
812.137	275.779
812.265	256.394
812.393	260.481
812.521	257.231
812.649	260.663
812.777	255.077
812.905	267.462
813.033	270.192
813.162	255.221
813.290	255.192
813.418	260.154
813.546	255.317
813.674	253.202
813.802	254.038
813.930	254.346
814.058	253.250
814.187	252.538
814.315	251.433
814.443	248.933
814.571	253.202
814.699	243.337
814.827	251.654
814.955	255.548
815.083	245.365
815.212	253.337
815.340	244.279
815.468	257.327
815.596	247.250
815.724	249.712
815.852	255.010
815.980	246.260
816.108	244.288
816.237	250.423
816.365	258.625
816.493	248.712
816.621	252.577
816.749	235.760
816.877	310.346
817.005	261.192
817.133	248.750
817.262	249.269
817.390	238.548
817.518	251.308
817.646	232.135
817.774	234.337
817.902	233.240
818.030	234.471
818.158	245.798
818.287	238.529
818.415	238.606
818.543	231.125
818.671	241.596
818.799	233.442
818.927	230.654
819.055	260.673
819.183	241.308
819.312	253.587
819.440	234.115
819.568	229.865
819.696	232.683
819.824	234.663
819.952	230.317
820.080	234.529
820.208	230.615
820.337	234.490
820.465	231.490
820.593	231.038
820.721	231.990
820.849	229.337
820.977	229.808
821.105	233.712
821.233	220.740
821.362	237.298
821.490	227.981
821.618	236.058
821.746	232.462
821.874	226.510
822.002	223.817
822.130	225.769
822.258	232.683
822.387	224.192
822.515	230.029
822.643	227.500
822.771	222.481
822.899	229.394
823.027	220.837
823.155	228.058
823.283	236.519
823.412	232.327
823.540	217.337
823.668	214.875
823.796	221.933
823.924	218.154
824.052	217.644
824.180	226.423
824.308	222.269
824.437	236.538
824.565	221.962
824.693	209.500
824.821	216.837
824.949	222.673
825.077	221.490
825.205	211.827
825.333	217.154
825.462	217.308
825.590	216.673
825.718	216.327
825.846	216.942
825.974	214.740
826.102	214.317
826.230	218.596
826.358	219.365
826.487	216.952
826.615	215.087
826.743	207.885
826.871	223.192
826.999	207.558
827.127	218.827
827.255	213.587
827.383	212.260
827.512	206.971
827.640	218.769
827.768	231.635
827.896	205.817
828.024	215.856
828.152	210.933
828.280	213.385
828.408	206.721
828.537	211.750
828.665	207.538
828.793	210.913
828.921	209.519
829.049	208.990
829.177	208.471
829.305	205.067
829.433	209.212
829.562	206.260
829.690	205.029
829.818	213.163
829.946	203.038
830.074	207.952
830.202	206.240
830.330	207.808
830.458	198.625
830.587	211.548
830.715	199.135
830.843	198.240
830.971	204.635
831.099	203.808
831.227	231.923
831.355	201.952
831.483	204.067
831.612	204.423
831.740	199.548
831.868	200.327
831.996	207.615
832.124	201.885
832.252	209.019
832.380	201.413
832.508	204.827
832.637	200.827
832.765	208.404
832.893	203.663
833.021	201.029
833.149	192.625
833.277	201.471
833.405	203.837
833.533	195.115
833.662	204.510
833.790	197.567
833.918	200.577
834.046	196.663
834.174	195.029
834.302	201.865
834.430	192.317
834.558	197.721
834.687	200.317
834.815	196.212
834.943	192.404
835.071	198.490
835.199	201.529
835.327	191.029
835.455	204.125
835.583	194.087
835.712	195.163
835.840	199.721
835.968	189.135
836.096	205.413
836.224	192.250
836.352	197.904
836.480	191.067
836.608	191.558
836.737	198.538
836.865	191.375
836.993	199.221
837.121	204.577
837.249	195.529
837.377	186.875
837.505	183.808
837.633	191.788
837.762	193.183
837.890	192.971
838.018	191.385
838.146	190.442
838.274	188.442
838.402	188.106
838.530	205.942
838.658	197.144
838.787	203.750
838.915	187.548
839.043	197.567
839.171	189.577
839.299	194.971
839.427	210.452
839.555	197.913
839.683	184.135
839.812	193.683
839.940	187.250
840.068	190.365
840.196	216.096
840.324	207.933
840.452	194.413
840.580	186.587
840.708	179.990
840.837	186.933
840.965	187.538
841.093	182.769
841.221	186.673
841.349	185.462
841.477	183.558
841.605	184.625
841.733	184.846
841.862	194.452
841.990	185.481
842.118	181.721
842.246	184.250
842.374	176.692
842.502	196.913
842.630	186.096
842.758	183.010
842.887	192.087
843.015	200.115
843.143	180.346
843.271	184.779
843.399	185.500
843.527	189.856
843.655	178.692
843.783	181.740
843.912	182.923
844.040	180.442
844.168	185.548
844.296	196.538
844.424	186.385
844.552	190.856
844.680	186.904
844.808	182.365
844.937	182.240
845.065	180.317
845.193	193.154
845.321	184.308
845.449	190.673
845.577	181.481
845.705	176.837
845.833	176.144
845.962	188.154
846.090	184.779
846.218	195.365
846.346	187.577
846.474	181.875
846.602	177.779
846.730	181.712
846.858	179.231
846.987	180.115
847.115	189.433
847.243	193.000
847.371	172.625
847.499	175.846
847.627	182.125
847.755	178.635
847.883	192.231
848.012	186.885
848.140	173.644
848.268	176.875
848.396	181.933
848.524	189.375
848.652	178.683
848.780	175.048
848.908	183.548
849.037	179.702
849.165	177.808
849.293	184.952
849.421	177.404
849.549	181.692
849.677	179.519
849.805	187.269
849.933	174.567
850.062	183.163
850.190	177.154
850.318	177.288
850.446	180.808
850.574	176.712
850.702	176.683
850.830	171.192
850.958	176.327
851.087	182.990
851.215	173.212
851.343	177.212
851.471	177.962
851.599	184.798
851.727	187.192
851.855	175.558
851.983	184.423
852.112	177.750
852.240	187.029
852.368	190.731
852.496	178.510
852.624	178.394
852.752	188.221
852.880	176.394
853.008	179.452
853.137	178.625
853.265	180.385
853.393	175.346
853.521	171.250
853.649	181.183
853.777	176.567
853.905	171.885
854.033	172.788
854.162	169.231
854.290	171.923
854.418	187.865
854.546	204.962
854.674	191.212
854.802	177.702
854.930	174.279
855.058	178.038
855.187	169.385
855.315	201.019
855.443	173.183
855.571	174.942
855.699	184.298
855.827	167.029
855.955	174.538
856.083	171.894
856.212	172.750
856.340	177.760
856.468	175.135
856.596	178.212
856.724	177.846
856.852	186.923
856.980	170.413
857.108	166.529
857.237	167.385
857.365	177.625
857.493	176.221
857.621	173.798
857.749	168.125
857.877	173.038
858.005	168.471
858.133	176.144
858.262	167.952
858.390	171.317
858.518	167.423
858.646	176.058
858.774	167.712
858.902	167.913
859.030	175.154
859.158	176.269
859.287	172.981
859.415	175.173
859.543	168.558
859.671	175.221
859.799	182.462
859.927	168.904
860.055	164.587
860.183	161.212
860.312	167.683
860.440	172.029
860.568	162.981
860.696	181.087
860.824	178.663
860.952	165.894
861.080	171.702
861.208	174.087
861.337	171.548
861.465	179.654
861.593	172.048
861.721	177.163
861.849	173.212
861.977	168.096
862.105	173.558
862.233	166.279
862.362	166.452
862.490	161.481
862.618	168.058
862.746	170.067
862.874	172.096
863.002	172.529
863.130	171.423
863.258	171.846
863.387	176.029
863.515	172.654
863.643	176.192
863.771	171.250
863.899	172.644
864.027	170.769
864.155	195.760
864.283	168.337
864.412	165.154
864.540	173.163
864.668	165.288
864.796	168.817
864.924	165.212
865.052	167.115
865.180	182.740
865.308	169.125
865.437	165.192
865.565	164.894
865.693	165.798
865.821	164.058
865.949	183.702
866.077	170.250
866.205	168.260
866.333	170.404
866.462	163.038
866.590	172.202
866.718	170.846
866.846	162.798
866.974	169.452
867.102	164.144
867.230	173.990
867.358	170.279
867.487	172.250
867.615	181.375
867.743	163.260
867.871	176.913
867.999	165.971
868.127	176.942
868.255	182.029
868.383	161.010
868.512	172.452
868.640	169.029
868.768	163.846
868.896	179.740
869.024	163.673
869.152	163.952
869.280	160.740
869.408	165.663
869.537	160.356
869.665	162.067
869.793	165.558
869.921	166.798
870.049	159.538
870.177	164.865
870.305	157.433
870.433	165.365
870.562	167.923
870.690	165.365
870.818	169.596
870.946	160.962
871.074	160.663
871.202	165.202
871.330	157.250
871.458	168.365
871.587	162.019
871.715	167.885
871.843	169.260
871.971	171.981
872.099	158.913
872.227	166.404
872.355	163.875
872.483	162.596
872.612	166.115
872.740	165.327
872.868	161.788
872.996	165.760
873.124	176.471
873.252	159.510
873.380	157.212
873.508	170.365
873.637	170.923
873.765	159.183
873.893	160.865
874.021	161.144
874.149	163.106
874.277	163.490
874.405	167.096
874.533	170.519
874.662	161.183
874.790	167.192
874.918	160.885
875.046	164.221
875.174	164.173
875.302	161.106
875.430	159.423
875.558	162.173
875.687	170.510
875.815	162.231
875.943	168.721
876.071	164.038
876.199	165.260
876.327	162.548
876.455	165.990
876.583	158.231
876.712	166.788
876.840	165.760
876.968	165.038
877.096	162.173
877.224	162.548
877.352	158.365
877.480	163.202
877.608	171.452
877.737	165.981
877.865	160.221
877.993	167.442
878.121	165.731
878.249	161.462
878.377	159.567
878.505	166.298
878.633	164.644
878.762	157.817
878.890	161.654
879.018	168.212
879.146	160.904
879.274	193.885
879.402	163.087
879.530	160.106
879.658	163.115
879.787	163.308
879.915	158.096
880.043	156.365
880.171	194.856
880.299	163.625
880.427	168.788
880.555	155.087
880.683	166.452
880.812	160.365
880.940	160.240
881.068	166.654
881.196	158.327
881.324	155.096
881.452	155.587
881.580	163.577
881.708	170.365
881.837	166.154
881.965	163.317
882.093	153.087
882.221	156.692
882.349	154.519
882.477	161.558
882.605	162.731
882.733	169.548
882.862	158.202
882.990	172.894
883.118	168.385
883.246	165.702
883.374	161.663
883.502	170.990
883.630	164.067
883.758	161.596
883.887	164.067
884.015	163.221
884.143	169.500
884.271	161.173
884.399	156.885
884.527	161.202
884.655	158.481
884.783	161.990
884.912	184.683
885.040	166.981
885.168	157.356
885.296	169.144
885.424	159.433
885.552	159.798
885.680	173.365
885.808	165.356
885.937	165.740
886.065	168.923
886.193	160.856
886.321	160.750
886.449	160.394
886.577	158.375
886.705	171.433
886.833	151.962
886.962	162.962
887.090	163.029
887.218	158.346
887.346	164.356
887.474	155.644
887.602	158.923
887.730	155.654
887.858	156.731
887.987	158.529
888.115	165.038
888.243	160.279
888.371	170.404
888.499	162.221
888.627	159.346
888.755	166.644
888.883	164.644
889.012	161.423
889.140	157.442
889.268	163.519
889.396	152.817
889.524	166.510
889.652	154.087
889.780	158.163
889.908	161.317
890.037	168.413
890.165	157.865
890.293	163.346
890.421	162.702
890.549	153.587
890.677	153.519
890.805	161.490
890.933	155.212
891.062	158.365
891.190	161.115
891.318	154.904
891.446	156.865
891.574	152.087
891.702	156.731
891.830	159.202
891.958	169.913
892.087	167.731
892.215	161.538
892.343	164.067
892.471	163.596
892.599	152.250
892.727	164.798
892.855	178.817
892.983	149.731
893.112	157.721
893.240	168.163
893.368	156.231
893.496	167.433
893.624	165.596
893.752	180.933
893.880	165.808
894.008	158.731
894.137	155.875
894.265	166.317
894.393	157.625
894.521	164.135
894.649	163.173
894.777	157.587
894.905	195.038
895.033	157.702
895.162	159.731
895.290	167.087
895.418	160.788
895.546	192.625
895.674	165.702
895.802	202.558
895.930	161.029
896.058	157.865
896.187	159.885
896.315	154.635
896.443	165.596
896.571	182.731
896.699	158.221
896.827	159.587
896.955	160.058
897.083	162.327
897.212	162.519
897.340	158.000
897.468	159.481
897.596	156.577
897.724	157.538
897.852	155.019
897.980	153.856
898.108	165.750
898.237	160.538
898.365	159.163
898.493	162.596
898.621	156.981
898.749	156.769
898.877	162.106
899.005	158.298
899.133	162.106
899.262	171.365
899.390	158.750
899.518	161.462
899.646	156.683
899.774	154.567
899.902	155.433
900.030	167.913
900.158	158.673
900.287	161.471
900.415	154.673
900.543	161.981
900.671	161.933
900.799	158.615
900.927	157.000
901.055	167.413
901.183	172.327
901.312	163.077
901.440	155.250
901.568	156.221
901.696	159.769
901.824	155.769
901.952	155.962
902.080	160.404
902.208	159.731
902.337	167.731
902.465	157.404
902.593	171.731
902.721	180.981
902.849	177.913
902.977	162.529
903.105	162.183
903.233	161.577
903.362	149.788
903.490	164.625
903.618	162.683
903.746	153.144
903.874	164.452
904.002	159.298
904.130	172.260
904.258	153.010
904.387	163.817
904.515	152.250
904.643	163.596
904.771	157.490
904.899	155.692
905.027	164.548
905.155	159.154
905.283	154.769
905.412	174.885
905.540	161.615
905.668	160.087
905.796	160.577
905.924	156.817
906.052	161.250
906.180	165.635
906.308	160.067
906.437	156.423
906.565	164.760
906.693	169.308
906.821	153.779
906.949	160.827
907.077	156.615
907.205	167.846
907.333	155.423
907.462	156.798
907.590	159.721
907.718	155.856
907.846	166.423
907.974	156.337
908.102	157.587
908.230	162.894
908.358	160.606
908.487	153.269
908.615	169.635
908.743	166.346
908.871	161.067
908.999	154.577
909.127	161.212
909.255	170.779
909.383	155.644
909.512	155.144
909.640	170.481
909.768	158.000
909.896	166.442
910.024	166.048
910.152	165.894
910.280	165.337
910.408	155.385
910.537	155.269
910.665	166.904
910.793	164.683
910.921	164.452
911.049	165.587
911.177	168.856
911.305	161.327
911.433	186.846
911.562	165.712
911.690	168.038
911.818	163.635
911.946	163.779
912.074	167.558
912.202	162.731
912.330	178.885
912.458	155.442
912.587	164.279
912.715	162.231
912.843	178.654
912.971	167.058
913.099	182.385
913.227	171.519
913.355	170.058
913.483	179.702
913.612	171.510
913.740	195.596
913.868	168.721
