70_100_0_Pol_at_750.00nm_cut_at_1179.00Y_02.dat
03.07.2023
10:48:00
cut middle at Y: 1179.00
top cursor: 1231 down cursor: 1127 mean of: 104 lines , 2560 datapoints
wavelength(nm)	intensity[arb. units]
585.996	32073.500
586.124	31486.625
586.252	31491.327
586.380	31597.827
586.508	31680.788
586.637	31781.788
586.765	31855.462
586.893	31891.933
587.021	31892.567
587.149	32045.144
587.277	32121.279
587.405	32118.365
587.533	32255.471
587.662	32300.288
587.790	32243.231
587.918	32272.587
588.046	32222.952
588.174	32332.087
588.302	32372.942
588.430	32406.808
588.558	32301.625
588.687	32374.087
588.815	32445.712
588.943	32320.260
589.071	32380.904
589.199	32408.202
589.327	32390.490
589.455	32423.423
589.583	32365.471
589.712	32349.913
589.840	32369.221
589.968	32344.673
590.096	32446.615
590.224	32420.202
590.352	32547.654
590.480	32391.221
590.608	32363.163
590.737	32458.837
590.865	32497.760
590.993	32434.337
591.121	32447.625
591.249	32439.971
591.377	32481.702
591.505	32489.981
591.633	32507.442
591.762	32483.548
591.890	32603.125
592.018	32630.663
592.146	32604.692
592.274	32609.144
592.402	32634.654
592.530	32848.644
592.658	32684.933
592.787	32797.308
592.915	32873.846
593.043	32767.019
593.171	32953.933
593.299	32909.010
593.427	32946.212
593.555	33007.971
593.683	33109.779
593.812	33058.260
593.940	33196.577
594.068	33211.433
594.196	33291.808
594.324	33340.058
594.452	33548.404
594.580	33427.317
594.708	33609.837
594.837	33665.183
594.965	33801.385
595.093	33796.712
595.221	33957.865
595.349	33998.000
595.477	33985.519
595.605	34136.798
595.733	34152.788
595.862	34124.548
595.990	34219.202
596.118	34290.817
596.246	34396.125
596.374	34416.173
596.502	34468.279
596.630	34547.077
596.758	34483.904
596.887	34683.260
597.015	34692.163
597.143	34695.135
597.271	34655.635
597.399	34877.327
597.527	34757.981
597.655	34807.798
597.783	34847.529
597.912	34833.038
598.040	34868.673
598.168	34821.394
598.296	34828.010
598.424	35015.731
598.552	34815.000
598.680	34838.596
598.808	35015.240
598.937	34935.038
599.065	34932.221
599.193	34945.096
599.321	34953.981
599.449	34891.442
599.577	34845.750
599.705	34867.288
599.833	34845.788
599.962	34850.077
600.090	34874.221
600.218	34847.606
600.346	34868.413
600.474	34889.962
600.602	34865.423
600.730	34956.490
600.858	34972.654
600.987	35075.856
601.115	34931.375
601.243	35048.567
601.371	35063.731
601.499	35111.962
601.627	35269.144
601.755	35278.933
601.883	35362.413
602.012	35206.769
602.140	35315.923
602.268	35328.413
602.396	35525.462
602.524	35545.154
602.652	35723.279
602.780	35695.298
602.908	35813.337
603.037	35974.625
603.165	36093.067
603.293	36184.298
603.421	36280.317
603.549	36278.144
603.677	36333.769
603.805	36513.481
603.933	36630.740
604.062	36710.087
604.190	36972.635
604.318	37019.048
604.446	37110.365
604.574	37194.500
604.702	37270.683
604.830	37381.837
604.958	37487.365
605.087	37664.596
605.215	37858.019
605.343	37876.452
605.471	37979.625
605.599	38074.606
605.727	38284.298
605.855	38336.933
605.983	38433.125
606.112	38581.462
606.240	38559.163
606.368	38632.442
606.496	38727.385
606.624	38839.019
606.752	38930.942
606.880	39053.558
607.008	39104.923
607.137	39096.923
607.265	39212.625
607.393	39304.106
607.521	39309.875
607.649	39392.933
607.777	39361.894
607.905	39366.038
608.033	39403.721
608.162	39431.279
608.290	39438.231
608.418	39606.769
608.546	39549.519
608.674	39650.865
608.802	39589.856
608.930	39585.337
609.058	39629.308
609.187	39662.375
609.315	39656.567
609.443	39617.173
609.571	39836.750
609.699	39643.385
609.827	39675.471
609.955	39741.135
610.083	39704.750
610.212	39736.462
610.340	39683.519
610.468	39702.942
610.596	39729.760
610.724	39702.221
610.852	39794.712
610.980	39772.606
611.108	39806.606
611.237	39837.442
611.365	39891.683
611.493	39863.096
611.621	39904.567
611.749	39966.087
611.877	40077.981
612.005	40108.875
612.133	40149.337
612.262	40144.798
612.390	40318.596
612.518	40333.558
612.646	40422.615
612.774	40486.885
612.902	40544.663
613.030	40684.481
613.158	40647.038
613.287	40786.721
613.415	40796.923
613.543	40890.212
613.671	40878.846
613.799	41004.577
613.927	41095.750
614.055	41332.596
614.183	41276.500
614.312	41400.029
614.440	41663.240
614.568	41642.471
614.696	41753.010
614.824	41757.558
614.952	41972.577
615.080	42027.423
615.208	42280.298
615.337	42342.990
615.465	42308.885
615.593	42572.587
615.721	42538.135
615.849	42684.779
615.977	42778.442
616.105	42813.481
616.233	42999.567
616.362	43249.846
616.490	43251.029
616.618	43337.077
616.746	43462.481
616.874	43603.875
617.002	43687.894
617.130	43730.577
617.258	43776.385
617.387	43844.721
617.515	44017.029
617.643	43989.587
617.771	44151.894
617.899	44193.663
618.027	44224.644
618.155	44339.596
618.283	44401.481
618.412	44418.442
618.540	44632.154
618.668	44732.404
618.796	44805.423
618.924	44769.529
619.052	44872.365
619.180	44800.615
619.308	44802.019
619.437	44939.481
619.565	44968.221
619.693	44982.529
619.821	45066.173
619.949	45121.029
620.077	45206.587
620.205	45202.923
620.333	45257.010
620.462	45338.375
620.590	45311.856
620.718	45364.298
620.846	45461.654
620.974	45411.913
621.102	45540.163
621.230	45530.981
621.358	45675.904
621.487	45597.337
621.615	45670.029
621.743	45596.971
621.871	45654.394
621.999	45700.885
622.127	45692.077
622.255	45705.577
622.383	45691.750
622.512	45759.788
622.640	45721.827
622.768	45900.192
622.896	45884.702
623.024	45944.471
623.152	45999.087
623.280	46071.712
623.408	46049.856
623.537	46117.231
623.665	46079.558
623.793	46169.308
623.921	46131.510
624.049	46216.615
624.177	46218.394
624.305	46250.990
624.433	46246.183
624.562	46355.058
624.690	46415.538
624.818	46312.721
624.946	46293.981
625.074	46341.788
625.202	46417.385
625.330	46422.000
625.458	46578.750
625.587	46550.317
625.715	46596.625
625.843	46627.144
625.971	46776.510
626.099	46758.019
626.227	46761.712
626.355	46731.981
626.483	46859.548
626.612	46809.077
626.740	47095.106
626.868	47006.673
626.996	47065.962
627.124	47091.635
627.252	47097.308
627.380	47242.587
627.508	47197.096
627.637	47305.433
627.765	47478.212
627.893	47541.913
628.021	47500.288
628.149	47512.298
628.277	47622.452
628.405	47646.663
628.533	47722.135
628.662	47832.433
628.790	47922.510
628.918	47982.654
629.046	48183.760
629.174	48086.269
629.302	48184.635
629.430	48277.990
629.558	48382.731
629.687	48404.346
629.815	48503.154
629.943	48712.587
630.071	48657.856
630.199	48831.394
630.327	48937.029
630.455	48953.269
630.583	49045.096
630.712	49075.019
630.840	49251.788
630.968	49274.817
631.096	49398.808
631.224	49516.000
631.352	49641.654
631.480	49610.673
631.608	49866.481
631.737	49776.750
631.865	49944.798
631.993	50003.606
632.121	50157.000
632.249	50181.356
632.377	50133.577
632.505	50259.471
632.633	50502.817
632.762	50342.067
632.890	50481.385
633.018	50513.760
633.146	50522.019
633.274	50532.875
633.402	50599.173
633.530	50605.644
633.658	50690.490
633.787	50728.298
633.915	50725.231
634.043	50790.885
634.171	50836.000
634.299	50898.750
634.427	50908.519
634.555	51070.125
634.683	50970.115
634.812	50940.529
634.940	50878.327
635.068	50904.183
635.196	50894.433
635.324	50949.750
635.452	50876.942
635.580	51026.952
635.708	50858.413
635.837	50939.538
635.965	50831.510
636.093	50788.346
636.221	50822.490
636.349	50679.029
636.477	50743.231
636.605	50730.231
636.733	50648.817
636.862	50617.231
636.990	50599.471
637.118	50539.000
637.246	50468.212
637.374	50619.519
637.502	50388.548
637.630	50355.692
637.758	50338.154
637.887	50284.154
638.015	50362.760
638.143	50254.740
638.271	50151.279
638.399	50164.442
638.527	50038.442
638.655	50120.750
638.783	49988.192
638.912	50052.606
639.040	49956.837
639.168	49837.010
639.296	49879.298
639.424	49934.981
639.552	49816.404
639.680	49874.827
639.808	49739.606
639.937	49813.904
640.065	49835.404
640.193	49844.317
640.321	49929.183
640.449	49894.442
640.577	49854.779
640.705	49858.173
640.833	49802.529
640.962	49929.856
641.090	49847.500
641.218	49791.519
641.346	49983.452
641.474	49966.875
641.602	49977.856
641.730	50014.885
641.858	49935.096
641.987	50013.519
642.115	50219.587
642.243	50063.048
642.371	50218.625
642.499	49968.933
642.627	50255.567
642.755	50170.702
642.883	50237.106
643.012	50271.798
643.140	50338.827
643.268	50366.279
643.396	50412.279
643.524	50439.558
643.652	50473.606
643.780	50435.529
643.908	50509.538
644.037	50619.096
644.165	50667.029
644.293	50703.308
644.421	50546.721
644.549	50709.346
644.677	50687.375
644.805	50727.317
644.933	50664.538
645.062	50804.288
645.190	50959.106
645.318	50876.846
645.446	50807.740
645.574	50901.529
645.702	50837.356
645.830	50928.163
645.958	50779.827
646.087	50779.904
646.215	50798.462
646.343	50886.462
646.471	51033.865
646.599	50803.048
646.727	50841.635
646.855	50870.087
646.983	50808.712
647.112	50876.202
647.240	50777.144
647.368	50906.442
647.496	50870.269
647.624	50757.913
647.752	50687.635
647.880	50772.317
648.008	50670.673
648.137	50825.712
648.265	50733.327
648.393	50701.567
648.521	50646.923
648.649	50731.317
648.777	50614.519
648.905	50533.673
649.033	50500.260
649.162	50391.625
649.290	50322.154
649.418	50321.038
649.546	50460.904
649.674	50280.846
649.802	50118.433
649.930	50033.365
650.058	50086.798
650.187	50045.192
650.315	49934.894
650.443	49881.144
650.571	49663.750
650.699	49760.529
650.827	49654.606
650.955	49427.750
651.083	49597.837
651.212	49407.269
651.340	49386.635
651.468	49358.923
651.596	49204.760
651.724	49185.029
651.852	49130.712
651.980	49187.135
652.108	48965.962
652.237	48999.077
652.365	48839.327
652.493	48831.981
652.621	48754.154
652.749	48673.712
652.877	48607.683
653.005	48669.644
653.133	48539.933
653.262	48382.375
653.390	48319.529
653.518	48400.769
653.646	48222.183
653.774	48126.952
653.902	48118.596
654.030	48064.933
654.158	47974.029
654.287	47935.596
654.415	47813.981
654.543	47776.240
654.671	47765.404
654.799	47697.144
654.927	47576.625
655.055	47556.942
655.183	47470.481
655.312	47396.202
655.440	47360.337
655.568	47321.596
655.696	47239.087
655.824	47246.490
655.952	47146.154
656.080	46939.894
656.208	46980.221
656.337	46928.721
656.465	46994.779
656.593	46752.038
656.721	46884.000
656.849	46748.356
656.977	46486.606
657.105	46530.125
657.233	46473.673
657.362	46453.163
657.490	46457.894
657.618	46344.183
657.746	46313.077
657.874	46104.779
658.002	45964.163
658.130	45786.442
658.258	45730.779
658.387	45690.337
658.515	45662.154
658.643	45479.365
658.771	45560.538
658.899	45502.952
659.027	45464.029
659.155	45332.644
659.283	45316.423
659.412	45193.269
659.540	45162.144
659.668	45122.779
659.796	45128.904
659.924	45094.327
660.052	45189.279
660.180	45111.019
660.308	45155.356
660.437	45075.865
660.565	44946.865
660.693	44713.779
660.821	44739.038
660.949	44499.913
661.077	44531.644
661.205	44650.702
661.333	44508.423
661.462	44419.163
661.590	44353.221
661.718	44114.846
661.846	44197.942
661.974	44162.058
662.102	44064.375
662.230	43933.240
662.358	43812.394
662.487	43855.260
662.615	43873.769
662.743	43768.077
662.871	43741.462
662.999	43605.096
663.127	43451.442
663.255	43420.519
663.383	43510.740
663.512	43314.990
663.640	43270.038
663.768	43275.577
663.896	43226.846
664.024	43153.125
664.152	43098.548
664.280	43118.452
664.408	42942.587
664.537	42891.577
664.665	42870.529
664.793	42815.212
664.921	42713.519
665.049	42785.865
665.177	42677.452
665.305	42657.923
665.433	42590.250
665.562	42709.356
665.690	42498.500
665.818	42562.808
665.946	42321.327
666.074	42320.615
666.202	42272.413
666.330	42191.481
666.458	42275.913
666.587	42152.587
666.715	42070.154
666.843	41939.683
666.971	41976.596
667.099	41915.769
667.227	41947.048
667.355	41893.221
667.483	41805.846
667.612	41852.260
667.740	41688.413
667.868	41651.375
667.996	41624.019
668.124	41588.750
668.252	41622.798
668.380	41451.923
668.508	41540.538
668.637	41344.125
668.765	41245.808
668.893	41193.327
669.021	41129.394
669.149	41081.490
669.277	40982.971
669.405	41044.827
669.533	40959.500
669.662	40820.769
669.790	40712.077
669.918	40753.923
670.046	40797.087
670.174	40516.846
670.302	40411.962
670.430	40340.067
670.558	40316.913
670.687	40367.933
670.815	40202.500
670.943	40131.279
671.071	39960.817
671.199	39904.163
671.327	39812.000
671.455	39816.356
671.583	39712.577
671.712	39655.163
671.840	39550.462
671.968	39612.221
672.096	39503.356
672.224	39264.663
672.352	39218.048
672.480	39122.635
672.608	39069.154
672.737	38899.048
672.865	38814.702
672.993	38705.144
673.121	38618.635
673.249	38590.231
673.377	38412.904
673.505	38347.500
673.633	38334.615
673.762	38196.856
673.890	38106.135
674.018	38023.154
674.146	37918.538
674.274	37921.519
674.402	37787.019
674.530	37760.683
674.658	37539.510
674.787	37463.221
674.915	37528.260
675.043	37307.740
675.171	37138.413
675.299	37058.683
675.427	36993.779
675.555	36916.462
675.683	36834.298
675.812	36702.692
675.940	36625.490
676.068	36485.500
676.196	36456.683
676.324	36272.712
676.452	36225.317
676.580	36137.452
676.708	36014.923
676.837	35866.260
676.965	35898.817
677.093	35837.769
677.221	35645.663
677.349	35483.625
677.477	35487.904
677.605	35364.202
677.733	35202.760
677.862	35114.385
677.990	35087.346
678.118	35025.346
678.246	34883.413
678.374	34806.365
678.502	34717.135
678.630	34573.029
678.758	34498.212
678.887	34613.740
679.015	34278.163
679.143	34205.712
679.271	34150.125
679.399	34080.885
679.527	34013.865
679.655	33963.990
679.783	33829.635
679.912	33765.683
680.040	33802.990
680.168	33545.933
680.296	33460.231
680.424	33472.740
680.552	33324.298
680.680	33216.500
680.808	33160.202
680.937	33133.394
681.065	33110.394
681.193	32951.385
681.321	32829.885
681.449	32892.029
681.577	32718.750
681.705	32694.990
681.833	32620.202
681.962	32534.471
682.090	32448.048
682.218	32432.144
682.346	32303.452
682.474	32234.500
682.602	32203.538
682.730	32212.471
682.858	32065.154
682.987	32034.452
683.115	32010.337
683.243	31885.606
683.371	31950.298
683.499	31785.404
683.627	31752.048
683.755	31679.442
683.883	31641.548
684.012	31539.452
684.140	31477.731
684.268	31485.433
684.396	31440.019
684.524	31409.519
684.652	31318.865
684.780	31273.769
684.908	31167.212
685.037	31183.625
685.165	31120.712
685.293	31106.038
685.421	31054.308
685.549	30992.548
685.677	30896.894
685.805	30877.019
685.933	30743.875
686.062	30697.029
686.190	30605.808
686.318	30591.731
686.446	30535.587
686.574	30480.885
686.702	30461.038
686.830	30350.212
686.958	30353.635
687.087	30273.144
687.215	30253.981
687.343	30147.183
687.471	30274.240
687.599	29994.875
687.727	30015.356
687.855	29845.885
687.983	29787.856
688.112	29792.923
688.240	29772.240
688.368	29705.413
688.496	29615.875
688.624	29519.577
688.752	29601.500
688.880	29399.337
689.008	29324.433
689.137	29295.250
689.265	29202.077
689.393	29090.337
689.521	29046.163
689.649	29084.558
689.777	28985.144
689.905	28992.010
690.033	28742.317
690.162	28718.894
690.290	28763.240
690.418	28608.500
690.546	28597.538
690.674	28522.481
690.802	28475.163
690.930	28406.048
691.058	28321.587
691.187	28213.625
691.315	28125.846
691.443	28016.837
691.571	28009.981
691.699	27891.452
691.827	27852.202
691.955	27736.269
692.083	27692.163
692.212	27599.452
692.340	27580.904
692.468	27552.308
692.596	27459.990
692.724	27328.394
692.852	27341.837
692.980	27244.135
693.108	27203.087
693.237	26992.087
693.365	26909.317
693.493	26892.433
693.621	26795.202
693.749	26720.327
693.877	26667.452
694.005	26514.125
694.133	26400.750
694.262	26391.990
694.390	26234.577
694.518	26176.135
694.646	26118.288
694.774	26014.625
694.902	25946.942
695.030	25859.558
695.158	25758.712
695.287	25699.077
695.415	25637.750
695.543	25541.606
695.671	25392.971
695.799	25470.490
695.927	25255.577
696.055	25227.192
696.183	25114.010
696.312	25203.702
696.440	25004.385
696.568	24997.827
696.696	24721.577
696.824	24631.048
696.952	24552.183
697.080	24515.510
697.208	24386.308
697.337	24328.346
697.465	24233.433
697.593	24174.010
697.721	24201.135
697.849	24028.010
697.977	23939.683
698.105	23936.327
698.233	23823.615
698.362	23670.375
698.490	23811.779
698.618	23557.702
698.746	23492.125
698.874	23477.308
699.002	23355.990
699.130	23341.904
699.258	23147.683
699.387	23099.375
699.515	23050.683
699.643	23017.510
699.771	22995.538
699.899	22809.154
700.027	22742.260
700.155	22717.269
700.283	22557.288
700.412	22501.096
700.540	22451.971
700.668	22465.971
700.796	22259.221
700.924	22217.760
701.052	22132.875
701.180	22123.038
701.308	21928.452
701.437	21893.481
701.565	21833.606
701.693	21785.096
701.821	21813.125
701.949	21613.356
702.077	21556.212
702.205	21568.125
702.333	21386.913
702.462	21325.904
702.590	21258.817
702.718	21165.644
702.846	21188.125
702.974	21004.298
703.102	20892.865
703.230	20884.010
703.358	20707.981
703.487	20662.577
703.615	20604.798
703.743	20489.077
703.871	20459.548
703.999	20354.962
704.127	20282.019
704.255	20193.577
704.383	20149.981
704.512	20100.269
704.640	20015.971
704.768	19983.606
704.896	19804.279
705.024	19675.625
705.152	19653.423
705.280	19614.385
705.408	19471.375
705.537	19376.048
705.665	19314.250
705.793	19238.827
705.921	19188.885
706.049	19041.010
706.177	18987.837
706.305	18906.221
706.433	18845.808
706.562	18771.288
706.690	18693.865
706.818	18591.721
706.946	18529.500
707.074	18385.163
707.202	18317.288
707.330	18265.077
707.458	18211.375
707.587	18127.048
707.715	18059.769
707.843	18018.375
707.971	17982.625
708.099	17821.587
708.227	17775.837
708.355	17663.856
708.483	17606.760
708.612	17532.721
708.740	17427.317
708.868	17371.231
708.996	17379.567
709.124	17321.337
709.252	17186.673
709.380	17181.750
709.508	17060.144
709.637	17020.442
709.765	16947.029
709.893	16905.942
710.021	16784.192
710.149	16842.173
710.277	16647.471
710.405	16615.702
710.533	16559.529
710.662	16462.702
710.790	16538.510
710.918	16325.019
711.046	16311.923
711.174	16222.702
711.302	16215.702
711.430	16133.288
711.558	16118.837
711.687	15994.663
711.815	15972.875
711.943	15859.740
712.071	15799.115
712.199	15804.577
712.327	15830.702
712.455	15583.413
712.583	15746.942
712.712	15551.837
712.840	15523.846
712.968	15397.058
713.096	15337.250
713.224	15272.606
713.352	15195.183
713.480	15152.587
713.608	15095.423
713.737	15019.519
713.865	15037.279
713.993	14919.548
714.121	14914.615
714.249	14809.644
714.377	14757.183
714.505	14671.625
714.633	14657.538
714.762	14562.462
714.890	14553.308
715.018	14459.510
715.146	14475.712
715.274	14345.779
715.402	14368.625
715.530	14229.154
715.658	14200.058
715.787	14178.394
715.915	14174.952
716.043	14047.135
716.171	14108.423
716.299	13884.106
716.427	13943.038
716.555	13815.058
716.683	13747.913
716.812	13729.000
716.940	13634.327
717.068	13563.635
717.196	13699.692
717.324	13499.212
717.452	13441.183
717.580	13451.144
717.708	13287.192
717.837	13284.327
717.965	13209.808
718.093	13162.865
718.221	13142.115
718.349	13146.606
718.477	12998.365
718.605	13042.298
718.733	12938.606
718.862	12912.260
718.990	12788.221
719.118	12791.144
719.246	12698.423
719.374	12629.625
719.502	12616.115
719.630	12653.702
719.758	12438.250
719.887	12385.019
720.015	12386.413
720.143	12348.837
720.271	12204.077
720.399	12243.231
720.527	12102.433
720.655	12166.808
720.783	12014.067
720.912	11947.971
721.040	11919.942
721.168	11887.423
721.296	11777.433
721.424	11732.308
721.552	11652.442
721.680	11686.740
721.808	11618.721
721.937	11553.596
722.065	11547.606
722.193	11434.606
722.321	11420.250
722.449	11345.615
722.577	11261.788
722.705	11213.923
722.833	11168.894
722.962	11111.231
723.090	11045.654
723.218	11014.856
723.346	10960.490
723.474	10853.231
723.602	10818.635
723.730	10780.942
723.858	10702.327
723.987	10672.683
724.115	10653.327
724.243	10608.587
724.371	10536.202
724.499	10473.846
724.627	10401.067
724.755	10342.029
724.883	10395.327
725.012	10420.510
725.140	10239.452
725.268	10153.519
725.396	10185.577
725.524	10200.394
725.652	9973.394
725.780	10054.010
725.908	9868.798
726.037	9873.231
726.165	9823.596
726.293	9740.519
726.421	9717.702
726.549	9679.096
726.677	9630.538
726.805	9515.327
726.933	9505.404
727.062	9471.615
727.190	9407.385
727.318	9346.548
727.446	9283.577
727.574	9221.702
727.702	9176.144
727.830	9210.327
727.958	9112.500
728.087	9163.375
728.215	9179.577
728.343	8977.788
728.471	8961.240
728.599	9048.346
728.727	8830.654
728.855	8826.298
728.983	8740.279
729.112	8743.990
729.240	8638.750
729.368	8601.740
729.496	8615.471
729.624	8579.163
729.752	8500.442
729.880	8443.279
730.008	8396.192
730.137	8353.500
730.265	8313.058
730.393	8433.702
730.521	8354.183
730.649	8131.471
730.777	8054.442
730.905	8076.538
731.033	7962.894
731.162	8098.375
731.290	8026.885
731.418	7935.413
731.546	7867.240
731.674	7852.837
731.802	7771.510
731.930	7839.510
732.058	7840.192
732.187	7715.942
732.315	7662.471
732.443	7734.365
732.571	7647.365
732.699	7609.077
732.827	7588.760
732.955	7509.529
733.083	7465.962
733.212	7460.635
733.340	7351.038
733.468	7332.000
733.596	7313.990
733.724	7269.010
733.852	7287.115
733.980	7224.712
734.108	7367.029
734.237	7172.923
734.365	7113.385
734.493	7081.635
734.621	7044.019
734.749	7016.692
734.877	7002.712
735.005	6981.250
735.133	6911.375
735.262	6984.125
735.390	6834.269
735.518	6808.644
735.646	6847.490
735.774	6830.135
735.902	6811.894
736.030	6691.077
736.158	6661.058
736.287	6692.894
736.415	6613.538
736.543	6581.423
736.671	6528.760
736.799	6547.202
736.927	6492.404
737.055	6572.558
737.183	6415.865
737.312	6389.587
737.440	6376.750
737.568	6431.327
737.696	6384.144
737.824	6295.154
737.952	6514.837
738.080	6206.000
738.208	6244.038
738.337	6155.183
738.465	6139.269
738.593	6108.635
738.721	6078.808
738.849	6128.183
738.977	6039.750
739.105	6040.452
739.233	5974.885
739.362	5928.288
739.490	5901.798
739.618	5939.500
739.746	5895.096
739.874	5828.721
740.002	5814.000
740.130	5805.567
740.258	5721.798
740.387	5759.423
740.515	5696.096
740.643	5677.221
740.771	5703.433
740.899	5601.962
741.027	5540.327
741.155	5504.990
741.283	5493.731
741.412	5613.327
741.540	5509.740
741.668	5431.904
741.796	5503.404
741.924	5371.308
742.052	5492.385
742.180	5335.067
742.308	5271.442
742.437	5306.462
742.565	5235.635
742.693	5353.663
742.821	5165.067
742.949	5145.298
743.077	5165.298
743.205	5059.058
743.333	5076.173
743.462	5080.894
743.590	5001.673
743.718	5002.894
743.846	4958.404
743.974	4986.663
744.102	4887.606
744.230	4928.327
744.358	4860.635
744.487	4846.269
744.615	4807.154
744.743	4774.240
744.871	4743.413
744.999	4802.923
745.127	4700.442
745.255	4650.865
745.383	4693.990
745.512	4632.231
745.640	4567.067
745.768	4579.654
745.896	4615.644
746.024	4565.885
746.152	4500.058
746.280	4527.500
746.408	4451.510
746.537	4514.154
746.665	4419.365
746.793	4377.433
746.921	4357.048
747.049	4365.019
747.177	4309.298
747.305	4493.327
747.433	4254.163
747.562	4231.423
747.690	4262.327
747.818	4293.692
747.946	4171.442
748.074	4161.442
748.202	4155.625
748.330	4122.260
748.458	4075.221
748.587	4034.413
748.715	4121.663
748.843	3995.038
748.971	3982.135
749.099	3997.221
749.227	3969.702
749.355	3991.365
749.483	3875.981
749.612	3953.981
749.740	3880.663
749.868	3862.673
749.996	3901.067
750.124	3874.942
750.252	3827.240
750.380	3808.029
750.508	3760.865
750.637	3710.644
750.765	3876.798
750.893	3695.952
751.021	3640.394
751.149	3670.375
751.277	3676.529
751.405	3637.077
751.533	3606.038
751.662	3543.385
751.790	3734.798
751.918	3534.096
752.046	3509.481
752.174	3526.058
752.302	3481.490
752.430	3447.962
752.558	3455.135
752.687	3399.817
752.815	3482.260
752.943	3365.567
753.071	3355.990
753.199	3343.615
753.327	3325.875
753.455	3269.721
753.583	3407.606
753.712	3301.221
753.840	3276.183
753.968	3236.596
754.096	3216.048
754.224	3214.971
754.352	3215.356
754.480	3198.894
754.608	3184.048
754.737	3164.010
754.865	3127.327
754.993	3206.942
755.121	3178.375
755.249	3240.288
755.377	2996.394
755.505	3103.596
755.633	3159.481
755.762	2963.173
755.890	2981.721
756.018	2937.385
756.146	2908.904
756.274	2972.096
756.402	2894.173
756.530	2867.712
756.658	2884.788
756.787	2854.433
756.915	2799.750
757.043	2780.000
757.171	2799.702
757.299	2949.587
757.427	2757.750
757.555	2812.154
757.683	2711.260
757.812	2719.346
757.940	2681.000
758.068	2662.413
758.196	2664.683
758.324	2714.365
758.452	2636.712
758.580	2643.221
758.708	2587.462
758.837	2721.923
758.965	2629.125
759.093	2634.154
759.221	2600.010
759.349	2565.510
759.477	2609.144
759.605	2570.817
759.733	2596.250
759.862	2542.452
759.990	2522.510
760.118	2531.115
760.246	2551.202
760.374	2510.096
760.502	2501.413
760.630	2482.096
760.758	2466.981
760.887	2448.990
761.015	2432.529
761.143	2428.788
761.271	2413.769
761.399	2393.413
761.527	2401.048
761.655	2396.769
761.783	2359.558
761.912	2363.298
762.040	2347.740
762.168	2324.462
762.296	2299.663
762.424	2312.692
762.552	2302.635
762.680	2267.885
762.808	2283.558
762.937	2243.240
763.065	2207.240
763.193	2204.788
763.321	2201.452
763.449	2153.548
763.577	2160.202
763.705	2184.933
763.833	2167.673
763.962	2147.875
764.090	2115.173
764.218	2103.846
764.346	2092.096
764.474	2092.125
764.602	2064.577
764.730	2052.433
764.858	2051.885
764.987	2051.894
765.115	2039.471
765.243	2010.798
765.371	2006.356
765.499	1998.404
765.627	1987.683
765.755	1977.615
765.883	1956.548
766.012	1957.558
766.140	1928.625
766.268	1925.144
766.396	1926.385
766.524	1909.769
766.652	1886.673
766.780	1886.558
766.908	1881.519
767.037	1866.558
767.165	1852.885
767.293	1852.519
767.421	1847.423
767.549	1807.240
767.677	1848.221
767.805	1797.365
767.933	1811.260
768.062	1787.490
768.190	1772.760
768.318	1781.731
768.446	1754.010
768.574	1745.923
768.702	1764.740
768.830	1742.106
768.958	1716.846
769.087	1720.923
769.215	1705.298
769.343	1711.471
769.471	1709.519
769.599	1699.452
769.727	1683.558
769.855	1649.337
769.983	1680.712
770.112	1638.096
770.240	1628.760
770.368	1629.154
770.496	1606.933
770.624	1627.587
770.752	1613.740
770.880	1613.846
771.008	1584.587
771.137	1581.933
771.265	1578.394
771.393	1547.106
771.521	1560.413
771.649	1551.173
771.777	1574.529
771.905	1584.971
772.033	1570.942
772.162	1510.952
772.290	1512.692
772.418	1526.942
772.546	1496.250
772.674	1490.452
772.802	1482.462
772.930	1491.327
773.058	1479.221
773.187	1467.038
773.315	1461.154
773.443	1454.423
773.571	1453.865
773.699	1444.058
773.827	1447.548
773.955	1452.096
774.083	1431.683
774.212	1412.721
774.340	1409.231
774.468	1405.538
774.596	1388.192
774.724	1402.519
774.852	1392.029
774.980	1381.173
775.108	1372.788
775.237	1353.163
775.365	1356.500
775.493	1369.029
775.621	1343.212
775.749	1346.433
775.877	1353.452
776.005	1336.029
776.133	1337.885
776.262	1317.462
776.390	1313.990
776.518	1290.788
776.646	1301.510
776.774	1308.269
776.902	1274.942
777.030	1282.154
777.158	1261.952
777.287	1282.808
777.415	1259.538
777.543	1261.558
777.671	1252.096
777.799	1252.702
777.927	1249.654
778.055	1243.433
778.183	1233.212
778.312	1232.952
778.440	1228.077
778.568	1240.990
778.696	1236.125
778.824	1220.144
778.952	1213.673
779.080	1195.058
779.208	1192.298
779.337	1195.452
779.465	1199.615
779.593	1183.423
779.721	1181.212
779.849	1171.625
779.977	1172.913
780.105	1151.452
780.233	1156.308
780.362	1149.038
780.490	1144.875
780.618	1150.481
780.746	1134.760
780.874	1136.077
781.002	1131.798
781.130	1116.654
781.258	1110.663
781.387	1120.788
781.515	1116.529
781.643	1103.144
781.771	1097.279
781.899	1109.135
782.027	1088.500
782.155	1089.856
782.283	1072.837
782.412	1081.144
782.540	1076.500
782.668	1063.923
782.796	1066.490
782.924	1068.308
783.052	1056.019
783.180	1044.798
783.308	1054.154
783.437	1043.952
783.565	1040.308
783.693	1039.990
783.821	1031.337
783.949	1031.183
784.077	1021.952
784.205	1034.971
784.333	1009.712
784.462	1011.135
784.590	997.163
784.718	994.087
784.846	993.923
784.974	994.365
785.102	976.702
785.230	983.471
785.358	974.202
785.487	974.173
785.615	961.808
785.743	960.760
785.871	961.942
785.999	976.894
786.127	958.471
786.255	942.452
786.383	937.904
786.512	942.538
786.640	941.404
786.768	925.442
786.896	933.856
787.024	921.346
787.152	913.952
787.280	935.769
787.408	912.471
787.537	919.029
787.665	915.981
787.793	905.298
787.921	887.808
788.049	887.385
788.177	893.885
788.305	884.000
788.433	883.231
788.562	880.923
788.690	870.990
788.818	871.933
788.946	863.721
789.074	856.481
789.202	852.673
789.330	850.288
789.458	858.625
789.587	846.558
789.715	856.798
789.843	850.269
789.971	845.298
790.099	841.462
790.227	831.644
790.355	830.731
790.483	833.577
790.612	827.394
790.740	830.837
790.868	814.702
790.996	825.365
791.124	825.365
791.252	822.010
791.380	802.413
791.508	810.135
791.637	810.981
791.765	786.596
791.893	798.317
792.021	789.933
792.149	779.067
792.277	787.115
792.405	771.106
792.533	774.913
792.662	771.577
792.790	772.712
792.918	777.135
793.046	763.673
793.174	768.471
793.302	757.183
793.430	753.385
793.558	763.019
793.687	751.510
793.815	743.481
793.943	757.875
794.071	742.038
794.199	740.135
794.327	734.808
794.455	743.904
794.583	727.250
794.712	733.471
794.840	722.067
794.968	731.010
795.096	721.548
795.224	706.644
795.352	758.260
795.480	703.019
795.608	707.375
795.737	700.125
795.865	694.721
795.993	704.654
796.121	697.356
796.249	686.452
796.377	684.519
796.505	683.788
796.633	684.760
796.762	675.942
796.890	677.740
797.018	674.356
797.146	680.356
797.274	675.779
797.402	666.538
797.530	657.538
797.658	666.000
797.787	674.385
797.915	661.942
798.043	643.865
798.171	656.904
798.299	642.038
798.427	650.087
798.555	650.250
798.683	636.442
798.812	663.327
798.940	680.462
799.068	662.038
799.196	639.712
799.324	630.490
799.452	617.279
799.580	623.500
799.708	623.375
799.837	617.865
799.965	612.712
800.093	613.788
800.221	604.558
800.349	604.375
800.477	589.154
800.605	597.394
800.733	604.183
800.862	594.827
800.990	595.788
801.118	593.096
801.246	601.788
801.374	594.510
801.502	581.192
801.630	584.519
801.758	581.788
801.887	570.721
802.015	576.500
802.143	564.712
802.271	567.192
802.399	561.606
802.527	557.760
802.655	566.308
802.783	556.346
802.912	557.250
803.040	554.740
803.168	545.894
803.296	558.625
803.424	545.837
803.552	553.010
803.680	548.029
803.808	541.125
803.937	543.375
804.065	544.481
804.193	539.606
804.321	550.904
804.449	553.250
804.577	538.452
804.705	550.317
804.833	529.163
804.962	525.029
805.090	525.904
805.218	522.635
805.346	510.298
805.474	518.106
805.602	523.587
805.730	530.375
805.858	509.981
805.987	507.500
806.115	506.029
806.243	512.029
806.371	502.923
806.499	501.433
806.627	489.692
806.755	505.288
806.883	502.144
807.012	491.817
807.140	496.010
807.268	485.519
807.396	494.827
807.524	489.817
807.652	493.135
807.780	493.548
807.908	479.038
808.037	494.981
808.165	490.240
808.293	478.827
808.421	474.452
808.549	471.519
808.677	478.490
808.805	483.798
808.933	466.519
809.062	468.731
809.190	482.731
809.318	471.817
809.446	463.865
809.574	473.683
809.702	460.019
809.830	458.644
809.958	469.702
810.087	460.885
810.215	458.702
810.343	460.846
810.471	458.413
810.599	451.885
810.727	453.125
810.855	446.817
810.983	446.760
811.112	453.894
811.240	439.846
811.368	445.808
811.496	446.115
811.624	440.202
811.752	443.462
811.880	457.471
812.008	443.702
812.137	450.510
812.265	436.615
812.393	436.952
812.521	423.837
812.649	431.413
812.777	421.000
812.905	436.587
813.033	437.125
813.162	423.567
813.290	425.212
813.418	423.740
813.546	423.221
813.674	420.538
813.802	417.952
813.930	417.115
814.058	420.135
814.187	409.788
814.315	409.260
814.443	414.721
814.571	413.433
814.699	401.798
814.827	416.308
814.955	414.385
815.083	406.702
815.212	406.962
815.340	399.962
815.468	412.760
815.596	400.529
815.724	400.769
815.852	403.240
815.980	401.115
816.108	397.971
816.237	400.317
816.365	403.923
816.493	396.606
816.621	408.058
816.749	380.750
816.877	446.923
817.005	407.827
817.133	391.587
817.262	386.462
817.390	381.019
817.518	393.490
817.646	376.712
817.774	374.423
817.902	375.567
818.030	375.538
818.158	385.048
818.287	378.365
818.415	371.817
818.543	369.846
818.671	373.942
818.799	369.442
818.927	367.135
819.055	397.615
819.183	369.827
819.312	385.885
819.440	367.596
819.568	371.298
819.696	367.394
819.824	365.077
819.952	364.779
820.080	364.212
820.208	360.260
820.337	366.173
820.465	355.817
820.593	359.048
820.721	357.913
820.849	357.962
820.977	353.029
821.105	358.615
821.233	345.356
821.362	358.221
821.490	348.894
821.618	358.529
821.746	360.587
821.874	348.654
822.002	343.231
822.130	349.740
822.258	348.817
822.387	343.692
822.515	349.173
822.643	340.471
822.771	342.885
822.899	344.231
823.027	337.721
823.155	349.760
823.283	352.760
823.412	355.327
823.540	333.269
823.668	330.769
823.796	336.048
823.924	336.250
824.052	334.808
824.180	335.221
824.308	334.856
824.437	347.635
824.565	335.913
824.693	324.510
824.821	323.962
824.949	334.558
825.077	329.971
825.205	320.481
825.333	325.683
825.462	332.712
825.590	324.587
825.718	317.817
825.846	322.673
825.974	320.500
826.102	324.894
826.230	325.615
826.358	332.096
826.487	324.779
826.615	318.731
826.743	312.048
826.871	328.596
826.999	320.587
827.127	323.298
827.255	318.404
827.383	312.702
827.512	311.096
827.640	315.135
827.768	337.279
827.896	305.837
828.024	319.077
828.152	312.481
828.280	318.240
828.408	303.337
828.537	318.567
828.665	310.048
828.793	308.635
828.921	308.740
829.049	309.115
829.177	307.404
829.305	308.106
829.433	306.962
829.562	302.750
829.690	302.423
829.818	306.462
829.946	300.548
830.074	304.135
830.202	301.317
830.330	305.240
830.458	286.404
830.587	311.096
830.715	295.356
830.843	288.519
830.971	300.317
831.099	297.029
831.227	322.077
831.355	296.529
831.483	296.587
831.612	293.500
831.740	290.856
831.868	293.894
831.996	303.683
832.124	292.779
832.252	299.558
832.380	293.654
832.508	294.712
832.637	292.038
832.765	296.221
832.893	293.058
833.021	286.115
833.149	285.163
833.277	289.298
833.405	291.529
833.533	287.048
833.662	287.808
833.790	280.250
833.918	289.240
834.046	287.962
834.174	282.269
834.302	288.538
834.430	282.029
834.558	279.202
834.687	288.260
834.815	283.837
834.943	279.606
835.071	282.519
835.199	281.192
835.327	278.548
835.455	289.779
835.583	279.096
835.712	277.692
835.840	280.587
835.968	274.702
836.096	285.942
836.224	275.125
836.352	280.231
836.480	271.923
836.608	273.798
836.737	281.760
836.865	270.558
836.993	278.154
837.121	280.087
837.249	279.413
837.377	269.808
837.505	263.788
837.633	271.808
837.762	274.163
837.890	275.740
838.018	268.865
838.146	269.115
838.274	263.144
838.402	266.375
838.530	285.279
838.658	273.875
838.787	273.260
838.915	267.010
839.043	278.519
839.171	263.683
839.299	268.490
839.427	286.981
839.555	269.856
839.683	262.510
839.812	265.798
839.940	260.490
840.068	266.279
840.196	290.500
840.324	286.231
840.452	270.365
840.580	258.587
840.708	252.702
840.837	264.654
840.965	261.173
841.093	256.298
841.221	261.010
841.349	256.529
841.477	252.058
841.605	260.913
841.733	254.163
841.862	268.721
841.990	260.308
842.118	256.990
842.246	255.442
842.374	251.346
842.502	263.452
842.630	254.962
842.758	252.423
842.887	264.788
843.015	272.058
843.143	253.125
843.271	252.144
843.399	250.827
843.527	258.077
843.655	251.010
843.783	248.529
843.912	251.250
844.040	246.231
844.168	251.067
844.296	262.904
844.424	262.279
844.552	255.760
844.680	255.115
844.808	249.837
844.937	250.750
845.065	248.471
845.193	265.038
845.321	253.798
845.449	255.365
845.577	245.856
845.705	247.606
845.833	245.135
845.962	252.606
846.090	250.442
846.218	255.596
846.346	251.808
846.474	252.481
846.602	242.240
846.730	249.538
846.858	245.183
846.987	241.875
847.115	253.981
847.243	259.231
847.371	235.163
847.499	239.240
847.627	243.567
847.755	247.048
847.883	250.212
848.012	253.596
848.140	237.990
848.268	240.731
848.396	246.115
848.524	252.856
848.652	245.673
848.780	235.192
848.908	247.365
849.037	242.173
849.165	238.731
849.293	245.923
849.421	239.913
849.549	242.606
849.677	239.654
849.805	250.356
849.933	241.288
850.062	246.183
850.190	238.702
850.318	235.875
850.446	246.442
850.574	242.577
850.702	239.750
850.830	230.952
850.958	238.096
851.087	246.135
851.215	231.990
851.343	239.481
851.471	239.596
851.599	244.356
851.727	247.144
851.855	237.817
851.983	239.308
852.112	237.365
852.240	242.500
852.368	248.413
852.496	236.702
852.624	238.981
852.752	241.894
852.880	238.019
853.008	237.529
853.137	236.904
853.265	238.038
853.393	233.952
853.521	228.308
853.649	240.096
853.777	234.731
853.905	228.481
854.033	233.317
854.162	225.077
854.290	229.904
854.418	251.490
854.546	259.346
854.674	247.712
854.802	233.962
854.930	227.769
855.058	240.394
855.187	229.279
855.315	258.288
855.443	230.692
855.571	229.683
855.699	242.500
855.827	223.750
855.955	231.375
856.083	228.587
856.212	228.702
856.340	234.413
856.468	229.481
856.596	228.212
856.724	231.231
856.852	241.212
856.980	224.942
857.108	221.942
857.237	220.260
857.365	235.750
857.493	234.010
857.621	226.288
857.749	230.077
857.877	225.952
858.005	226.692
858.133	229.625
858.262	226.760
858.390	226.490
858.518	222.250
858.646	233.625
858.774	219.587
858.902	223.173
859.030	228.077
859.158	230.654
859.287	224.798
859.415	227.615
859.543	228.000
859.671	229.135
859.799	231.567
859.927	223.462
860.055	217.606
860.183	217.481
860.312	223.375
860.440	225.567
860.568	213.865
860.696	233.548
860.824	234.317
860.952	220.423
861.080	224.769
861.208	225.683
861.337	223.798
861.465	228.548
861.593	225.779
861.721	229.635
861.849	225.471
861.977	220.856
862.105	227.154
862.233	220.500
862.362	219.654
862.490	222.654
862.618	218.250
862.746	219.673
862.874	222.423
863.002	226.606
863.130	223.163
863.258	223.298
863.387	226.481
863.515	221.625
863.643	231.346
863.771	226.125
863.899	220.317
864.027	224.490
864.155	244.654
864.283	221.317
864.412	215.962
864.540	221.606
864.668	215.067
864.796	222.250
864.924	214.192
865.052	212.596
865.180	234.673
865.308	220.269
865.437	216.865
865.565	212.173
865.693	217.163
865.821	213.308
865.949	233.154
866.077	219.067
866.205	216.067
866.333	220.712
866.462	209.115
866.590	224.096
866.718	219.913
866.846	210.433
866.974	214.875
867.102	213.654
867.230	221.817
867.358	217.192
867.487	224.413
867.615	225.885
867.743	212.760
867.871	223.529
867.999	218.231
868.127	228.183
868.255	232.923
868.383	209.587
868.512	216.971
868.640	220.154
868.768	211.000
868.896	223.942
869.024	213.058
869.152	215.192
869.280	213.279
869.408	214.471
869.537	213.106
869.665	211.327
869.793	214.240
869.921	214.673
870.049	210.192
870.177	215.462
870.305	209.038
870.433	213.375
870.562	215.692
870.690	213.673
870.818	223.327
870.946	208.865
871.074	205.192
871.202	211.269
871.330	207.365
871.458	214.615
871.587	214.231
871.715	217.567
871.843	212.760
871.971	216.971
872.099	205.683
872.227	211.356
872.355	209.894
872.483	210.115
872.612	213.596
872.740	210.644
872.868	210.462
872.996	213.885
873.124	222.423
873.252	209.635
873.380	204.837
873.508	221.817
873.637	222.538
873.765	208.394
873.893	210.596
874.021	212.375
874.149	208.038
874.277	208.971
874.405	215.683
874.533	219.135
874.662	208.990
874.790	212.058
874.918	205.779
875.046	214.317
875.174	209.510
875.302	206.712
875.430	208.596
875.558	211.856
875.687	216.365
875.815	211.125
875.943	217.529
876.071	213.625
876.199	212.721
876.327	212.952
876.455	208.644
876.583	204.019
876.712	217.529
876.840	209.577
876.968	209.750
877.096	211.740
877.224	207.596
877.352	205.606
877.480	207.663
877.608	222.135
877.737	211.577
877.865	202.375
877.993	212.837
878.121	216.702
878.249	207.885
878.377	207.010
878.505	213.740
878.633	213.096
878.762	205.125
878.890	211.731
879.018	215.798
879.146	205.856
879.274	234.067
879.402	210.788
879.530	205.365
879.658	209.894
879.787	208.635
879.915	208.510
880.043	204.471
880.171	240.683
880.299	212.192
880.427	215.019
880.555	207.192
880.683	214.356
880.812	212.260
880.940	208.779
881.068	214.990
881.196	207.798
881.324	203.837
881.452	206.221
881.580	212.337
881.708	214.923
881.837	213.087
881.965	207.308
882.093	202.375
882.221	202.933
882.349	200.933
882.477	207.567
882.605	205.817
882.733	212.067
882.862	205.106
882.990	218.846
883.118	216.029
883.246	217.423
883.374	206.635
883.502	212.337
883.630	212.260
883.758	204.923
883.887	209.019
884.015	211.433
884.143	212.096
884.271	205.731
884.399	204.462
884.527	210.019
884.655	207.125
884.783	210.135
884.912	229.058
885.040	212.337
885.168	203.923
885.296	216.337
885.424	207.144
885.552	206.856
885.680	220.721
885.808	215.106
885.937	215.154
886.065	213.519
886.193	203.846
886.321	209.048
886.449	205.837
886.577	205.606
886.705	216.029
886.833	197.769
886.962	207.635
887.090	210.990
887.218	202.183
887.346	205.058
887.474	202.808
887.602	209.212
887.730	202.683
887.858	202.558
887.987	201.029
888.115	206.538
888.243	206.798
888.371	218.365
888.499	206.596
888.627	208.798
888.755	211.769
888.883	204.683
889.012	208.644
889.140	206.385
889.268	207.942
889.396	202.385
889.524	210.606
889.652	194.885
889.780	205.865
889.908	203.423
890.037	213.788
890.165	206.010
890.293	208.135
890.421	207.894
890.549	200.577
890.677	202.654
890.805	205.538
890.933	202.231
891.062	202.529
891.190	206.760
891.318	197.606
891.446	206.952
891.574	199.010
891.702	200.644
891.830	205.548
891.958	215.788
892.087	211.346
892.215	208.000
892.343	208.817
892.471	208.394
892.599	204.038
892.727	209.394
892.855	221.000
892.983	196.894
893.112	200.087
893.240	211.952
893.368	203.269
893.496	214.740
893.624	210.231
893.752	225.163
893.880	206.288
894.008	205.173
894.137	204.077
894.265	209.183
894.393	200.327
894.521	213.683
894.649	206.635
894.777	193.654
894.905	238.067
895.033	199.606
895.162	201.663
895.290	212.663
895.418	203.192
895.546	233.760
895.674	209.692
895.802	243.423
895.930	204.394
896.058	199.548
896.187	198.663
896.315	196.750
896.443	209.529
896.571	227.115
896.699	199.404
896.827	198.913
896.955	201.837
897.083	202.452
897.212	201.567
897.340	198.587
897.468	204.663
897.596	198.750
897.724	199.827
897.852	194.702
897.980	196.087
898.108	205.058
898.237	199.635
898.365	201.288
898.493	202.529
898.621	198.413
898.749	199.894
898.877	198.731
899.005	204.115
899.133	202.240
899.262	214.510
899.390	199.587
899.518	204.337
899.646	195.721
899.774	194.481
899.902	192.798
900.030	207.606
900.158	200.298
900.287	202.163
900.415	193.990
900.543	202.394
900.671	204.404
900.799	200.298
900.927	192.365
901.055	207.760
901.183	206.904
901.312	209.990
901.440	192.673
901.568	193.019
901.696	196.356
901.824	193.279
901.952	192.971
902.080	202.837
902.208	195.692
902.337	207.548
902.465	195.462
902.593	210.346
902.721	217.981
902.849	217.288
902.977	201.529
903.105	196.519
903.233	198.298
903.362	190.990
903.490	202.462
903.618	199.740
903.746	192.144
903.874	195.635
904.002	193.106
904.130	202.529
904.258	189.413
904.387	199.452
904.515	189.029
904.643	198.673
904.771	193.615
904.899	196.308
905.027	200.683
905.155	195.731
905.283	191.827
905.412	209.558
905.540	199.212
905.668	194.077
905.796	195.731
905.924	198.654
906.052	196.115
906.180	200.808
906.308	191.269
906.437	190.913
906.565	197.750
906.693	203.962
906.821	188.942
906.949	195.452
907.077	192.529
907.205	197.317
907.333	186.942
907.462	191.750
907.590	192.519
907.718	191.183
907.846	199.558
907.974	187.308
908.102	196.500
908.230	195.058
908.358	192.462
908.487	186.846
908.615	206.144
908.743	203.298
908.871	197.260
908.999	190.837
909.127	196.125
909.255	204.615
909.383	189.087
909.512	189.067
909.640	204.808
909.768	195.808
909.896	200.500
910.024	202.452
910.152	199.269
910.280	199.596
910.408	191.115
910.537	189.875
910.665	197.279
910.793	199.490
910.921	199.904
911.049	201.606
911.177	201.212
911.305	193.096
911.433	222.163
911.562	200.827
911.690	200.096
911.818	197.298
911.946	196.173
912.074	203.231
912.202	195.952
912.330	211.010
912.458	189.615
912.587	201.635
912.715	199.769
912.843	204.385
912.971	198.596
913.099	212.644
913.227	204.538
913.355	203.288
913.483	208.856
913.612	206.231
913.740	226.183
913.868	200.154
