70_100_90_Pol_at_750.00nm_cut_at_1179.00Y_01.dat
03.07.2023
10:46:55
cut middle at Y: 1179.00
top cursor: 1231 down cursor: 1127 mean of: 104 lines , 2560 datapoints
wavelength(nm)	intensity[arb. units]
585.996	12772.904
586.124	12533.510
586.252	12553.692
586.380	12582.048
586.508	12616.413
586.637	12723.558
586.765	12680.740
586.893	12717.077
587.021	12735.712
587.149	12750.673
587.277	12791.308
587.405	12785.990
587.533	12870.529
587.662	12897.356
587.790	12850.048
587.918	12846.731
588.046	12864.423
588.174	12892.692
588.302	12872.808
588.430	12869.798
588.558	12891.865
588.687	12914.385
588.815	12934.404
588.943	12916.817
589.071	12930.038
589.199	12920.567
589.327	12915.702
589.455	12989.106
589.583	12942.885
589.712	12964.135
589.840	12927.500
589.968	12937.962
590.096	12964.894
590.224	12929.692
590.352	13038.077
590.480	12962.990
590.608	12928.173
590.737	12953.990
590.865	13066.356
590.993	12957.644
591.121	12975.933
591.249	12982.125
591.377	12999.442
591.505	13095.644
591.633	13001.106
591.762	13014.635
591.890	13012.404
592.018	13134.077
592.146	13094.029
592.274	13034.202
592.402	13015.635
592.530	13255.173
592.658	13136.904
592.787	13165.385
592.915	13188.231
593.043	13136.471
593.171	13211.433
593.299	13197.827
593.427	13213.942
593.555	13242.587
593.683	13259.663
593.812	13254.423
593.940	13287.202
594.068	13308.663
594.196	13330.654
594.324	13383.385
594.452	13583.663
594.580	13471.615
594.708	13508.260
594.837	13531.962
594.965	13610.163
595.093	13586.010
595.221	13690.740
595.349	13680.144
595.477	13678.337
595.605	13743.827
595.733	13750.587
595.862	13796.192
595.990	13793.038
596.118	13855.625
596.246	13905.154
596.374	13857.510
596.502	13907.231
596.630	13934.885
596.758	13946.827
596.887	13951.404
597.015	14002.567
597.143	14000.077
597.271	14005.673
597.399	14091.087
597.527	14059.490
597.655	14085.269
597.783	14072.308
597.912	14088.038
598.040	14113.010
598.168	14092.971
598.296	14054.712
598.424	14224.798
598.552	14106.788
598.680	14122.087
598.808	14158.692
598.937	14126.606
599.065	14132.885
599.193	14176.933
599.321	14182.192
599.449	14152.125
599.577	14171.288
599.705	14173.837
599.833	14141.731
599.962	14095.760
600.090	14174.875
600.218	14156.385
600.346	14202.692
600.474	14131.442
600.602	14112.990
600.730	14143.702
600.858	14226.250
600.987	14263.712
601.115	14210.606
601.243	14314.337
601.371	14312.298
601.499	14286.115
601.627	14316.904
601.755	14302.587
601.883	14386.404
602.012	14307.433
602.140	14362.971
602.268	14392.394
602.396	14545.356
602.524	14537.510
602.652	14582.923
602.780	14576.971
602.908	14634.952
603.037	14715.673
603.165	14705.212
603.293	14769.712
603.421	14790.096
603.549	14808.567
603.677	14908.702
603.805	14890.163
603.933	14935.779
604.062	15044.567
604.190	15110.990
604.318	15142.327
604.446	15134.837
604.574	15277.144
604.702	15298.769
604.830	15273.077
604.958	15333.231
605.087	15429.087
605.215	15553.654
605.343	15575.019
605.471	15602.058
605.599	15650.558
605.727	15775.337
605.855	15711.721
605.983	15815.173
606.112	15842.346
606.240	15815.250
606.368	15870.952
606.496	15914.327
606.624	16007.894
606.752	15976.317
606.880	16080.356
607.008	16079.558
607.137	16096.683
607.265	16165.510
607.393	16159.923
607.521	16260.087
607.649	16246.433
607.777	16242.144
607.905	16291.048
608.033	16244.365
608.162	16282.240
608.290	16258.500
608.418	16375.769
608.546	16364.192
608.674	16389.000
608.802	16346.125
608.930	16359.317
609.058	16372.500
609.187	16376.875
609.315	16383.433
609.443	16385.462
609.571	16473.490
609.699	16388.231
609.827	16457.163
609.955	16446.587
610.083	16428.904
610.212	16412.240
610.340	16388.375
610.468	16419.163
610.596	16448.885
610.724	16427.481
610.852	16483.442
610.980	16492.510
611.108	16469.808
611.237	16509.615
611.365	16512.538
611.493	16504.779
611.621	16541.192
611.749	16555.865
611.877	16660.202
612.005	16601.827
612.133	16665.663
612.262	16692.673
612.390	16765.452
612.518	16770.663
612.646	16772.644
612.774	16833.673
612.902	16842.587
613.030	16904.394
613.158	16912.029
613.287	16971.462
613.415	16929.567
613.543	16973.019
613.671	16973.433
613.799	17050.817
613.927	17123.760
614.055	17216.519
614.183	17207.433
614.312	17230.125
614.440	17353.760
614.568	17341.038
614.696	17386.837
614.824	17439.731
614.952	17471.750
615.080	17489.048
615.208	17579.769
615.337	17689.231
615.465	17633.942
615.593	17738.519
615.721	17740.269
615.849	17866.269
615.977	17799.010
616.105	17909.846
616.233	17900.115
616.362	18029.510
616.490	18047.615
616.618	18151.240
616.746	18242.615
616.874	18251.894
617.002	18250.510
617.130	18313.308
617.258	18319.019
617.387	18384.048
617.515	18417.875
617.643	18425.125
617.771	18558.413
617.899	18527.404
618.027	18612.288
618.155	18665.567
618.283	18632.212
618.412	18668.375
618.540	18806.962
618.668	18764.548
618.796	18772.798
618.924	18827.971
619.052	18869.981
619.180	18873.125
619.308	18880.279
619.437	18895.404
619.565	18946.654
619.693	18962.106
619.821	19034.558
619.949	19016.019
620.077	19032.577
620.205	19106.500
620.333	19110.962
620.462	19112.721
620.590	19175.500
620.718	19186.625
620.846	19223.423
620.974	19225.990
621.102	19267.433
621.230	19305.058
621.358	19443.279
621.487	19309.423
621.615	19396.538
621.743	19329.692
621.871	19408.712
621.999	19305.192
622.127	19372.231
622.255	19418.856
622.383	19424.865
622.512	19403.279
622.640	19447.106
622.768	19525.212
622.896	19574.875
623.024	19551.481
623.152	19559.779
623.280	19664.654
623.408	19613.779
623.537	19659.721
623.665	19643.731
623.793	19740.962
623.921	19675.260
624.049	19732.702
624.177	19728.587
624.305	19773.750
624.433	19801.798
624.562	19864.942
624.690	19944.913
624.818	19842.240
624.946	19826.462
625.074	19869.615
625.202	19863.577
625.330	19911.125
625.458	19992.923
625.587	19930.962
625.715	20027.048
625.843	20000.471
625.971	20097.212
626.099	20088.644
626.227	20089.654
626.355	20102.087
626.483	20146.558
626.612	20122.673
626.740	20224.827
626.868	20213.875
626.996	20287.673
627.124	20269.452
627.252	20292.115
627.380	20386.740
627.508	20322.635
627.637	20405.548
627.765	20436.798
627.893	20470.683
628.021	20586.385
628.149	20522.038
628.277	20591.856
628.405	20622.404
628.533	20599.125
628.662	20673.837
628.790	20786.404
628.918	20694.923
629.046	20894.538
629.174	20791.365
629.302	20837.875
629.430	20851.865
629.558	20941.644
629.687	20908.385
629.815	20976.529
629.943	21119.721
630.071	21071.212
630.199	21134.058
630.327	21214.538
630.455	21200.712
630.583	21275.981
630.712	21299.173
630.840	21375.269
630.968	21338.548
631.096	21408.394
631.224	21408.817
631.352	21632.471
631.480	21540.308
631.608	21727.173
631.737	21574.519
631.865	21739.067
631.993	21719.962
632.121	21927.404
632.249	21804.798
632.377	21780.019
632.505	21850.923
632.633	21929.856
632.762	21871.163
632.890	21914.702
633.018	21933.740
633.146	21988.337
633.274	21997.875
633.402	22075.615
633.530	22054.596
633.658	22092.269
633.787	22133.827
633.915	22119.740
634.043	22175.202
634.171	22178.212
634.299	22158.154
634.427	22188.558
634.555	22415.587
634.683	22257.413
634.812	22235.654
634.940	22232.596
635.068	22248.683
635.196	22226.346
635.324	22263.173
635.452	22257.548
635.580	22333.625
635.708	22254.519
635.837	22237.837
635.965	22257.327
636.093	22263.615
636.221	22245.077
636.349	22206.038
636.477	22170.250
636.605	22241.692
636.733	22173.298
636.862	22228.558
636.990	22186.673
637.118	22194.058
637.246	22083.894
637.374	22291.183
637.502	22074.673
637.630	22112.471
637.758	22073.673
637.887	22051.481
638.015	22171.519
638.143	22074.317
638.271	21967.019
638.399	22018.529
638.527	21972.837
638.655	21984.442
638.783	22019.558
638.912	22016.279
639.040	21947.250
639.168	21877.615
639.296	21904.779
639.424	22010.404
639.552	21881.163
639.680	22009.519
639.808	21946.981
639.937	21931.240
640.065	21852.577
640.193	21938.413
640.321	22027.490
640.449	21970.702
640.577	21930.635
640.705	21968.712
640.833	21976.788
640.962	22051.000
641.090	21960.308
641.218	21956.644
641.346	22050.433
641.474	22025.000
641.602	22033.779
641.730	22042.808
641.858	22009.462
641.987	22074.942
642.115	22247.894
642.243	22127.942
642.371	22281.798
642.499	22106.548
642.627	22236.423
642.755	22173.154
642.883	22186.202
643.012	22210.673
643.140	22297.356
643.268	22323.279
643.396	22246.125
643.524	22327.385
643.652	22402.202
643.780	22332.288
643.908	22328.356
644.037	22430.923
644.165	22458.952
644.293	22577.788
644.421	22386.817
644.549	22490.625
644.677	22543.038
644.805	22505.038
644.933	22509.260
645.062	22572.154
645.190	22700.567
645.318	22554.981
645.446	22534.500
645.574	22527.404
645.702	22590.269
645.830	22572.769
645.958	22499.048
646.087	22575.962
646.215	22543.327
646.343	22568.587
646.471	22763.221
646.599	22602.567
646.727	22551.837
646.855	22559.019
646.983	22558.788
647.112	22625.442
647.240	22583.952
647.368	22630.933
647.496	22584.875
647.624	22528.000
647.752	22615.548
647.880	22516.010
648.008	22544.981
648.137	22506.788
648.265	22481.692
648.393	22574.663
648.521	22495.087
648.649	22642.029
648.777	22507.769
648.905	22476.817
649.033	22518.327
649.162	22379.635
649.290	22313.135
649.418	22325.644
649.546	22441.558
649.674	22310.260
649.802	22231.404
649.930	22232.644
650.058	22174.260
650.187	22219.615
650.315	22143.750
650.443	22158.308
650.571	22031.913
650.699	22067.673
650.827	22020.240
650.955	22003.135
651.083	21991.933
651.212	21971.221
651.340	21938.423
651.468	21845.683
651.596	21845.731
651.724	21827.279
651.852	21794.779
651.980	21811.673
652.108	21717.615
652.237	21672.500
652.365	21689.163
652.493	21604.029
652.621	21557.038
652.749	21564.269
652.877	21546.087
653.005	21494.692
653.133	21449.173
653.262	21406.173
653.390	21375.712
653.518	21495.404
653.646	21346.846
653.774	21278.894
653.902	21336.038
654.030	21244.529
654.158	21174.490
654.287	21201.779
654.415	21117.615
654.543	21123.606
654.671	21067.712
654.799	21024.538
654.927	20973.923
655.055	20926.615
655.183	20971.875
655.312	20915.596
655.440	20859.587
655.568	20852.375
655.696	20818.644
655.824	20837.740
655.952	20738.462
656.080	20697.471
656.208	20722.298
656.337	20715.231
656.465	20796.163
656.593	20600.481
656.721	20584.135
656.849	20602.692
656.977	20441.490
657.105	20402.115
657.233	20410.692
657.362	20452.856
657.490	20426.115
657.618	20353.337
657.746	20339.683
657.874	20239.413
658.002	20165.500
658.130	20130.615
658.258	20110.923
658.387	20056.279
658.515	20006.875
658.643	20005.279
658.771	20058.221
658.899	19939.144
659.027	19939.933
659.155	19880.269
659.283	19831.740
659.412	19842.317
659.540	19806.356
659.668	19764.837
659.796	19858.990
659.924	19741.837
660.052	19829.115
660.180	19761.308
660.308	19738.125
660.437	19732.798
660.565	19630.327
660.693	19554.558
660.821	19675.721
660.949	19494.635
661.077	19469.894
661.205	19593.183
661.333	19429.837
661.462	19414.442
661.590	19443.865
661.718	19297.250
661.846	19305.404
661.974	19316.933
662.102	19266.087
662.230	19229.587
662.358	19117.346
662.487	19170.625
662.615	19099.952
662.743	19084.202
662.871	19059.413
662.999	18975.471
663.127	18978.125
663.255	18898.077
663.383	19071.288
663.512	18845.923
663.640	18858.452
663.768	18837.529
663.896	18794.615
664.024	18780.442
664.152	18747.202
664.280	18757.327
664.408	18663.192
664.537	18641.615
664.665	18634.808
664.793	18607.558
664.921	18577.548
665.049	18596.442
665.177	18488.192
665.305	18516.250
665.433	18506.048
665.562	18590.212
665.690	18439.654
665.818	18555.577
665.946	18338.846
666.074	18337.683
666.202	18341.529
666.330	18244.452
666.458	18574.433
666.587	18227.740
666.715	18196.856
666.843	18144.423
666.971	18162.856
667.099	18192.683
667.227	18172.904
667.355	18143.856
667.483	18040.692
667.612	18050.740
667.740	18033.298
667.868	17990.365
667.996	17937.327
668.124	18018.202
668.252	18013.058
668.380	17861.721
668.508	17870.019
668.637	17834.529
668.765	17819.019
668.893	17782.269
669.021	17705.385
669.149	17703.192
669.277	17657.894
669.405	17716.375
669.533	17642.048
669.662	17572.663
669.790	17514.260
669.918	17534.337
670.046	17601.577
670.174	17366.808
670.302	17395.221
670.430	17309.750
670.558	17360.558
670.687	17462.596
670.815	17196.577
670.943	17221.202
671.071	17108.558
671.199	17064.875
671.327	17082.212
671.455	17064.538
671.583	16977.712
671.712	16944.990
671.840	16896.298
671.968	17034.087
672.096	16962.538
672.224	16749.096
672.352	16724.971
672.480	16672.952
672.608	16642.490
672.737	16566.375
672.865	16518.106
672.993	16495.596
673.121	16447.942
673.249	16371.106
673.377	16322.750
673.505	16271.779
673.633	16299.587
673.762	16203.462
673.890	16181.019
674.018	16151.788
674.146	16061.462
674.274	16023.173
674.402	16038.529
674.530	15941.106
674.658	15835.135
674.787	15826.885
674.915	15914.721
675.043	15772.740
675.171	15700.125
675.299	15590.894
675.427	15534.423
675.555	15545.375
675.683	15556.625
675.812	15448.048
675.940	15387.125
676.068	15323.106
676.196	15355.865
676.324	15215.067
676.452	15175.702
676.580	15078.317
676.708	15072.125
676.837	14997.606
676.965	15063.442
677.093	15118.125
677.221	14962.462
677.349	14782.038
677.477	14878.423
677.605	14732.721
677.733	14680.577
677.862	14689.538
677.990	14612.010
678.118	14631.365
678.246	14565.048
678.374	14548.933
678.502	14409.615
678.630	14342.000
678.758	14340.663
678.887	14467.519
679.015	14234.202
679.143	14172.077
679.271	14122.288
679.399	14095.462
679.527	14098.115
679.655	14083.865
679.783	13937.635
679.912	13878.250
680.040	14047.692
680.168	13842.394
680.296	13831.692
680.424	13807.731
680.552	13714.385
680.680	13661.442
680.808	13629.625
680.937	13564.231
681.065	13602.885
681.193	13507.385
681.321	13429.779
681.449	13483.212
681.577	13426.654
681.705	13382.385
681.833	13357.615
681.962	13305.942
682.090	13260.240
682.218	13247.644
682.346	13239.750
682.474	13151.788
682.602	13139.163
682.730	13165.192
682.858	13026.481
682.987	13029.894
683.115	13030.462
683.243	12965.471
683.371	12955.808
683.499	12893.163
683.627	12904.337
683.755	12843.538
683.883	12791.635
684.012	12793.731
684.140	12752.317
684.268	12706.875
684.396	12757.760
684.524	12680.683
684.652	12694.567
684.780	12658.885
684.908	12625.192
685.037	12610.721
685.165	12572.115
685.293	12598.510
685.421	12531.510
685.549	12505.308
685.677	12413.615
685.805	12471.346
685.933	12368.875
686.062	12366.442
686.190	12311.490
686.318	12310.375
686.446	12199.490
686.574	12198.615
686.702	12260.962
686.830	12155.192
686.958	12182.538
687.087	12099.115
687.215	12096.058
687.343	12065.038
687.471	12202.587
687.599	11917.894
687.727	11912.163
687.855	11887.144
687.983	11858.779
688.112	11909.096
688.240	11821.750
688.368	11857.654
688.496	11757.519
688.624	11699.942
688.752	11832.356
688.880	11690.644
689.008	11628.163
689.137	11612.452
689.265	11538.663
689.393	11541.308
689.521	11480.356
689.649	11568.212
689.777	11464.606
689.905	11483.327
690.033	11372.394
690.162	11335.702
690.290	11337.394
690.418	11266.654
690.546	11282.385
690.674	11243.846
690.802	11237.413
690.930	11165.596
691.058	11134.269
691.187	11052.298
691.315	11059.558
691.443	10992.260
691.571	10970.673
691.699	10873.567
691.827	10861.144
691.955	10878.288
692.083	10807.067
692.212	10803.125
692.340	10757.058
692.468	10763.913
692.596	10738.538
692.724	10625.106
692.852	10672.971
692.980	10607.577
693.108	10644.337
693.237	10491.452
693.365	10443.837
693.493	10413.798
693.621	10391.654
693.749	10332.067
693.877	10366.529
694.005	10275.231
694.133	10213.673
694.262	10279.240
694.390	10112.106
694.518	10087.721
694.646	10098.683
694.774	10013.952
694.902	9978.077
695.030	9985.846
695.158	9882.375
695.287	9916.048
695.415	9866.510
695.543	9817.846
695.671	9743.413
695.799	9846.769
695.927	9709.856
696.055	9698.952
696.183	9583.500
696.312	9779.827
696.440	9558.413
696.568	9591.462
696.696	9444.990
696.824	9415.885
696.952	9362.096
697.080	9391.125
697.208	9280.010
697.337	9268.337
697.465	9219.769
697.593	9168.875
697.721	9296.769
697.849	9092.904
697.977	9132.462
698.105	9159.904
698.233	9076.471
698.362	8968.856
698.490	9065.231
698.618	8892.952
698.746	8867.644
698.874	8924.087
699.002	8832.519
699.130	8809.673
699.258	8755.279
699.387	8708.202
699.515	8705.423
699.643	8672.125
699.771	8727.750
699.899	8573.981
700.027	8533.337
700.155	8567.490
700.283	8416.327
700.412	8421.231
700.540	8450.048
700.668	8441.240
700.796	8338.115
700.924	8317.327
701.052	8320.462
701.180	8282.702
701.308	8181.798
701.437	8121.712
701.565	8111.663
701.693	8114.279
701.821	8279.154
701.949	8007.731
702.077	7998.154
702.205	8048.000
702.333	7925.798
702.462	7882.548
702.590	7951.260
702.718	7783.856
702.846	7951.260
702.974	7743.990
703.102	7716.442
703.230	7718.202
703.358	7635.221
703.487	7601.135
703.615	7580.346
703.743	7524.087
703.871	7513.615
703.999	7472.269
704.127	7444.327
704.255	7390.375
704.383	7422.788
704.512	7409.529
704.640	7378.394
704.768	7380.048
704.896	7253.048
705.024	7156.010
705.152	7182.490
705.280	7202.346
705.408	7094.538
705.537	7051.904
705.665	7042.731
705.793	6984.346
705.921	6981.337
706.049	6905.654
706.177	6930.875
706.305	6867.442
706.433	6870.856
706.562	6844.365
706.690	6808.615
706.818	6775.904
706.946	6690.587
707.074	6676.913
707.202	6624.875
707.330	6612.394
707.458	6572.904
707.587	6521.538
707.715	6543.740
707.843	6538.048
707.971	6525.875
708.099	6428.712
708.227	6364.856
708.355	6367.904
708.483	6334.952
708.612	6318.856
708.740	6274.404
708.868	6234.779
708.996	6292.317
709.124	6266.885
709.252	6192.904
709.380	6189.625
709.508	6116.846
709.637	6123.394
709.765	6087.596
709.893	6118.067
710.021	5996.240
710.149	6110.798
710.277	5945.048
710.405	5935.981
710.533	5910.433
710.662	5877.423
710.790	6004.413
710.918	5823.865
711.046	5859.635
711.174	5775.413
711.302	5813.240
711.430	5773.423
711.558	5775.577
711.687	5706.856
711.815	5663.577
711.943	5621.087
712.071	5640.740
712.199	5635.913
712.327	5658.846
712.455	5553.481
712.583	5707.933
712.712	5514.375
712.840	5553.808
712.968	5481.808
713.096	5442.490
713.224	5403.212
713.352	5404.154
713.480	5330.260
713.608	5329.837
713.737	5285.394
713.865	5341.471
713.993	5269.038
714.121	5275.423
714.249	5194.346
714.377	5188.163
714.505	5166.846
714.633	5177.385
714.762	5136.490
714.890	5115.106
715.018	5092.933
715.146	5131.654
715.274	5029.625
715.402	5035.260
715.530	5007.750
715.658	5028.000
715.787	4975.154
715.915	5032.538
716.043	4921.538
716.171	5065.135
716.299	4867.462
716.427	4944.625
716.555	4842.260
716.683	4818.933
716.812	4783.462
716.940	4761.875
717.068	4715.067
717.196	4885.356
717.324	4728.154
717.452	4684.635
717.580	4727.192
717.708	4620.202
717.837	4634.721
717.965	4637.740
718.093	4587.923
718.221	4617.962
718.349	4596.894
718.477	4504.212
718.605	4572.221
718.733	4498.635
718.862	4511.183
718.990	4407.731
719.118	4498.827
719.246	4423.788
719.374	4350.837
719.502	4396.692
719.630	4481.962
719.758	4303.346
719.887	4287.606
720.015	4334.808
720.143	4320.144
720.271	4207.519
720.399	4256.365
720.527	4201.240
720.655	4279.990
720.783	4152.596
720.912	4133.548
721.040	4115.471
721.168	4120.904
721.296	4043.923
721.424	4051.952
721.552	4024.913
721.680	4075.250
721.808	3988.817
721.937	3986.048
722.065	4017.135
722.193	3966.029
722.321	3924.529
722.449	3919.606
722.577	3845.413
722.705	3855.433
722.833	3826.683
722.962	3847.654
723.090	3795.356
723.218	3783.683
723.346	3796.308
723.474	3709.433
723.602	3683.731
723.730	3664.923
723.858	3635.452
723.987	3653.990
724.115	3606.317
724.243	3633.192
724.371	3577.808
724.499	3563.404
724.627	3542.971
724.755	3515.192
724.883	3593.500
725.012	3661.010
725.140	3503.308
725.268	3460.577
725.396	3494.087
725.524	3542.202
725.652	3384.913
725.780	3507.538
725.908	3370.163
726.037	3367.875
726.165	3340.471
726.293	3288.644
726.421	3315.923
726.549	3318.240
726.677	3285.327
726.805	3214.750
726.933	3255.952
727.062	3207.894
727.190	3165.346
727.318	3125.731
727.446	3141.356
727.574	3091.538
727.702	3096.538
727.830	3151.058
727.958	3094.115
728.087	3141.240
728.215	3174.375
728.343	3047.250
728.471	3042.308
728.599	3164.327
728.727	2976.202
728.855	2993.577
728.983	2923.856
729.112	2936.394
729.240	2932.308
729.368	2899.260
729.496	2928.106
729.624	2898.154
729.752	2843.481
729.880	2837.769
730.008	2815.894
730.137	2820.394
730.265	2808.010
730.393	2968.327
730.521	2929.990
730.649	2742.173
730.777	2718.173
730.905	2720.788
731.033	2683.615
731.162	2777.654
731.290	2749.788
731.418	2677.721
731.546	2659.346
731.674	2651.981
731.802	2602.519
731.930	2697.712
732.058	2707.500
732.187	2618.529
732.315	2613.538
732.443	2689.663
732.571	2615.327
732.699	2595.913
732.827	2594.817
732.955	2554.663
733.083	2555.577
733.212	2567.096
733.340	2518.212
733.468	2535.173
733.596	2514.413
733.724	2501.990
733.852	2504.471
733.980	2498.173
734.108	2539.077
734.237	2489.644
734.365	2482.971
734.493	2460.548
734.621	2467.962
734.749	2461.038
734.877	2441.644
735.005	2434.644
735.133	2426.837
735.262	2440.846
735.390	2384.740
735.518	2383.865
735.646	2393.510
735.774	2389.962
735.902	2371.933
736.030	2350.356
736.158	2357.135
736.287	2355.577
736.415	2350.750
736.543	2324.433
736.671	2293.875
736.799	2304.942
736.927	2310.885
737.055	2301.356
737.183	2273.173
737.312	2252.452
737.440	2241.779
737.568	2237.019
737.696	2227.115
737.824	2242.875
737.952	2422.019
738.080	2199.933
738.208	2186.981
738.337	2193.317
738.465	2198.221
738.593	2165.115
738.721	2139.837
738.849	2154.808
738.977	2142.577
739.105	2149.058
739.233	2128.433
739.362	2114.269
739.490	2092.981
739.618	2085.606
739.746	2077.481
739.874	2059.173
740.002	2081.048
740.130	2032.288
740.258	2036.308
740.387	2048.385
740.515	2039.519
740.643	1997.875
740.771	2005.808
740.899	1992.596
741.027	1985.798
741.155	1970.048
741.283	1986.875
741.412	1972.885
741.540	1950.875
741.668	1930.115
741.796	1934.183
741.924	1925.702
742.052	1907.760
742.180	1919.683
742.308	1875.000
742.437	1879.644
742.565	1888.288
742.693	1878.087
742.821	1864.365
742.949	1836.923
743.077	1820.240
743.205	1835.077
743.333	1821.269
743.462	1824.817
743.590	1807.615
743.718	1798.894
743.846	1786.423
743.974	1814.942
744.102	1763.692
744.230	1760.885
744.358	1753.635
744.487	1736.442
744.615	1722.423
744.743	1728.548
744.871	1721.365
744.999	1706.471
745.127	1710.250
745.255	1671.125
745.383	1675.144
745.512	1660.212
745.640	1652.471
745.768	1663.298
745.896	1646.356
746.024	1635.846
746.152	1638.885
746.280	1635.981
746.408	1629.317
746.537	1602.721
746.665	1613.279
746.793	1596.154
746.921	1579.212
747.049	1583.423
747.177	1576.885
747.305	1581.212
747.433	1555.769
747.562	1544.038
747.690	1548.385
747.818	1531.212
747.946	1530.865
748.074	1520.125
748.202	1517.952
748.330	1504.135
748.458	1493.413
748.587	1502.077
748.715	1496.048
748.843	1455.865
748.971	1468.154
749.099	1479.567
749.227	1464.558
749.355	1470.365
749.483	1426.394
749.612	1462.558
749.740	1441.577
749.868	1435.856
749.996	1415.029
750.124	1426.385
750.252	1396.721
750.380	1405.212
750.508	1406.000
750.637	1376.827
750.765	1385.885
750.893	1376.404
751.021	1362.173
751.149	1370.865
751.277	1360.538
751.405	1338.721
751.533	1365.202
751.662	1324.269
751.790	1318.856
751.918	1322.433
752.046	1319.913
752.174	1296.442
752.302	1291.288
752.430	1292.971
752.558	1282.192
752.687	1286.423
752.815	1271.567
752.943	1271.750
753.071	1262.981
753.199	1270.433
753.327	1275.490
753.455	1238.577
753.583	1244.952
753.712	1220.740
753.840	1242.288
753.968	1216.615
754.096	1218.058
754.224	1211.250
754.352	1197.481
754.480	1216.519
754.608	1194.529
754.737	1192.981
754.865	1195.337
754.993	1189.529
755.121	1179.885
755.249	1153.038
755.377	1133.654
755.505	1151.490
755.633	1145.385
755.762	1132.798
755.890	1148.183
756.018	1123.827
756.146	1102.846
756.274	1109.490
756.402	1109.529
756.530	1117.990
756.658	1102.048
756.787	1086.433
756.915	1082.558
757.043	1075.327
757.171	1072.635
757.299	1073.587
757.427	1056.413
757.555	1054.365
757.683	1052.106
757.812	1057.962
757.940	1037.183
758.068	1041.933
758.196	1038.163
758.324	1039.385
758.452	1032.183
758.580	1019.308
758.708	1011.567
758.837	1029.654
758.965	1018.010
759.093	1006.894
759.221	981.077
759.349	978.404
759.477	978.702
759.605	960.894
759.733	979.346
759.862	963.923
759.990	963.317
760.118	956.673
760.246	962.865
760.374	964.106
760.502	947.192
760.630	932.115
760.758	934.163
760.887	934.635
761.015	923.596
761.143	927.779
761.271	918.173
761.399	905.490
761.527	917.558
761.655	914.817
761.783	888.538
761.912	893.163
762.040	901.673
762.168	880.740
762.296	879.240
762.424	884.471
762.552	876.385
762.680	856.731
762.808	879.885
762.937	870.644
763.065	842.971
763.193	850.356
763.321	834.327
763.449	834.654
763.577	821.548
763.705	843.538
763.833	832.279
763.962	821.173
764.090	808.202
764.218	811.048
764.346	806.106
764.474	814.606
764.602	802.317
764.730	808.163
764.858	799.702
764.987	794.298
765.115	791.538
765.243	782.769
765.371	787.923
765.499	770.558
765.627	772.048
765.755	775.183
765.883	769.990
766.012	759.346
766.140	755.038
766.268	749.923
766.396	746.298
766.524	751.144
766.652	735.885
766.780	735.913
766.908	735.250
767.037	755.875
767.165	736.596
767.293	738.673
767.421	735.471
767.549	716.481
767.677	741.615
767.805	720.894
767.933	717.990
768.062	703.923
768.190	707.154
768.318	701.375
768.446	692.212
768.574	695.183
768.702	692.010
768.830	693.048
768.958	682.933
769.087	696.721
769.215	681.875
769.343	678.529
769.471	689.654
769.599	681.019
769.727	665.663
769.855	667.327
769.983	698.625
770.112	664.317
770.240	654.144
770.368	654.462
770.496	650.192
770.624	652.346
770.752	638.769
770.880	654.875
771.008	642.606
771.137	637.192
771.265	625.740
771.393	620.663
771.521	623.596
771.649	631.385
771.777	654.673
771.905	673.067
772.033	656.029
772.162	614.365
772.290	616.058
772.418	613.452
772.546	614.721
772.674	608.942
772.802	597.404
772.930	606.760
773.058	600.962
773.187	602.913
773.315	592.625
773.443	595.202
773.571	591.356
773.699	590.827
773.827	596.567
773.955	607.692
774.083	588.885
774.212	577.212
774.340	580.144
774.468	569.356
774.596	578.692
774.724	577.135
774.852	581.192
774.980	576.106
775.108	564.519
775.237	554.692
775.365	557.587
775.493	560.865
775.621	554.683
775.749	556.067
775.877	562.683
776.005	557.163
776.133	545.990
776.262	546.904
776.390	546.894
776.518	537.115
776.646	549.346
776.774	536.125
776.902	533.423
777.030	534.269
777.158	533.058
777.287	543.202
777.415	527.692
777.543	527.558
777.671	528.875
777.799	518.250
777.927	518.962
778.055	521.846
778.183	513.269
778.312	518.452
778.440	511.981
778.568	525.740
778.696	522.596
778.824	516.462
778.952	514.962
779.080	507.808
779.208	507.894
779.337	512.433
779.465	513.125
779.593	497.913
779.721	506.538
779.849	500.875
779.977	492.433
780.105	498.019
780.233	494.394
780.362	486.442
780.490	486.548
780.618	489.981
780.746	487.019
780.874	490.279
781.002	485.135
781.130	482.913
781.258	473.788
781.387	482.048
781.515	480.663
781.643	467.010
781.771	473.913
781.899	479.702
782.027	469.577
782.155	467.740
782.283	460.654
782.412	466.721
782.540	464.952
782.668	467.990
782.796	456.692
782.924	476.990
783.052	464.760
783.180	456.981
783.308	455.337
783.437	452.558
783.565	457.490
783.693	453.308
783.821	455.663
783.949	455.481
784.077	441.788
784.205	451.365
784.333	436.096
784.462	443.885
784.590	441.635
784.718	429.952
784.846	446.788
784.974	451.606
785.102	432.106
785.230	436.154
785.358	424.673
785.487	427.808
785.615	426.452
785.743	428.827
785.871	436.375
785.999	431.221
786.127	430.433
786.255	416.635
786.383	421.519
786.512	420.683
786.640	422.712
786.768	406.856
786.896	413.596
787.024	412.548
787.152	408.654
787.280	430.663
787.408	412.558
787.537	416.856
787.665	415.356
787.793	404.500
787.921	409.462
788.049	403.644
788.177	402.240
788.305	398.942
788.433	404.731
788.562	396.433
788.690	399.558
788.818	400.433
788.946	387.096
789.074	384.692
789.202	385.990
789.330	387.913
789.458	399.269
789.587	387.510
789.715	396.029
789.843	393.423
789.971	387.250
790.099	380.971
790.227	376.942
790.355	379.462
790.483	378.490
790.612	383.971
790.740	388.240
790.868	374.894
790.996	390.519
791.124	389.423
791.252	380.644
791.380	370.144
791.508	374.779
791.637	383.202
791.765	361.096
791.893	373.481
792.021	372.721
792.149	363.923
792.277	370.788
792.405	362.702
792.533	367.346
792.662	360.413
792.790	363.923
792.918	370.885
793.046	356.346
793.174	360.529
793.302	358.712
793.430	352.365
793.558	365.279
793.687	354.067
793.815	348.529
793.943	364.885
794.071	343.577
794.199	344.856
794.327	351.644
794.455	357.712
794.583	349.269
794.712	346.423
794.840	341.837
794.968	348.962
795.096	355.135
795.224	332.788
795.352	373.096
795.480	334.135
795.608	339.923
795.737	335.385
795.865	329.404
795.993	337.875
796.121	334.894
796.249	333.846
796.377	335.471
796.505	341.106
796.633	334.731
796.762	327.769
796.890	324.231
797.018	325.817
797.146	331.606
797.274	334.394
797.402	324.817
797.530	319.096
797.658	321.404
797.787	339.529
797.915	324.769
798.043	319.769
798.171	327.327
798.299	313.635
798.427	322.144
798.555	330.615
798.683	321.308
798.812	344.558
798.940	357.260
799.068	344.327
799.196	322.385
799.324	324.615
799.452	308.837
799.580	312.452
799.708	312.673
799.837	309.173
799.965	306.519
800.093	305.510
800.221	301.548
800.349	304.202
800.477	301.019
800.605	305.260
800.733	315.260
800.862	306.673
800.990	299.269
801.118	302.125
801.246	302.817
801.374	306.990
801.502	298.885
801.630	294.740
801.758	295.885
801.887	295.154
802.015	301.337
802.143	290.779
802.271	295.990
802.399	286.615
802.527	287.212
802.655	290.952
802.783	286.740
802.912	289.500
803.040	289.817
803.168	285.221
803.296	291.423
803.424	284.433
803.552	289.250
803.680	284.587
803.808	284.269
803.937	283.317
804.065	282.058
804.193	286.442
804.321	299.077
804.449	296.394
804.577	284.067
804.705	301.490
804.833	283.760
804.962	280.558
805.090	277.183
805.218	273.558
805.346	271.048
805.474	287.500
805.602	284.423
805.730	288.606
805.858	269.673
805.987	272.048
806.115	273.010
806.243	276.663
806.371	274.125
806.499	272.394
806.627	264.683
806.755	273.798
806.883	271.058
807.012	269.644
807.140	274.894
807.268	258.750
807.396	264.673
807.524	261.635
807.652	272.913
807.780	264.365
807.908	263.538
808.037	278.308
808.165	274.442
808.293	257.817
808.421	259.192
808.549	260.413
808.677	260.356
808.805	274.827
808.933	258.519
809.062	258.442
809.190	269.913
809.318	263.288
809.446	257.933
809.574	265.452
809.702	253.846
809.830	247.942
809.958	264.462
810.087	258.394
810.215	253.538
810.343	262.500
810.471	259.000
810.599	247.365
810.727	256.202
810.855	248.971
810.983	251.971
811.112	251.365
811.240	251.981
811.368	253.346
811.496	255.490
811.624	253.817
811.752	248.413
811.880	265.221
812.008	255.625
812.137	261.288
812.265	248.183
812.393	250.154
812.521	239.913
812.649	247.077
812.777	243.096
812.905	252.462
813.033	254.529
813.162	243.731
813.290	242.865
813.418	242.846
813.546	241.615
813.674	235.125
813.802	238.115
813.930	240.856
814.058	241.163
814.187	240.817
814.315	237.827
814.443	236.385
814.571	238.817
814.699	231.144
814.827	231.231
814.955	239.356
815.083	232.596
815.212	235.962
815.340	225.798
815.468	240.673
815.596	231.856
815.724	232.423
815.852	238.933
815.980	230.625
816.108	229.952
816.237	235.625
816.365	244.038
816.493	234.260
816.621	244.135
816.749	223.856
816.877	292.452
817.005	250.346
817.133	237.567
817.262	233.029
817.390	225.548
817.518	236.173
817.646	222.019
817.774	222.423
817.902	218.000
818.030	222.413
818.158	235.240
818.287	226.596
818.415	226.058
818.543	221.346
818.671	227.010
818.799	221.067
818.927	216.327
819.055	252.337
819.183	224.144
819.312	242.548
819.440	222.356
819.568	215.837
819.696	223.192
819.824	221.394
819.952	218.385
820.080	220.644
820.208	218.067
820.337	222.317
820.465	219.798
820.593	224.029
820.721	220.788
820.849	213.010
820.977	216.837
821.105	221.673
821.233	210.490
821.362	222.327
821.490	213.125
821.618	220.115
821.746	223.202
821.874	218.115
822.002	206.788
822.130	210.798
822.258	216.567
822.387	213.269
822.515	220.433
822.643	211.990
822.771	216.038
822.899	217.615
823.027	211.010
823.155	213.087
823.283	225.913
823.412	220.846
823.540	203.144
823.668	203.413
823.796	210.692
823.924	209.856
824.052	210.587
824.180	212.058
824.308	209.885
824.437	221.913
824.565	213.298
824.693	198.183
824.821	204.596
824.949	208.490
825.077	206.990
825.205	199.788
825.333	209.279
825.462	213.740
825.590	203.000
825.718	199.519
825.846	205.058
825.974	207.231
826.102	204.827
826.230	205.471
826.358	210.683
826.487	204.692
826.615	200.337
826.743	197.125
826.871	208.683
826.999	202.000
827.127	206.894
827.255	201.356
827.383	202.452
827.512	196.154
827.640	207.952
827.768	219.375
827.896	193.817
828.024	206.413
828.152	199.952
828.280	204.673
828.408	202.163
828.537	197.817
828.665	196.096
828.793	200.692
828.921	197.452
829.049	197.788
829.177	196.529
829.305	199.519
829.433	192.404
829.562	190.654
829.690	199.202
829.818	199.962
829.946	197.856
830.074	197.163
830.202	189.962
830.330	196.962
830.458	189.750
830.587	200.356
830.715	192.721
830.843	189.721
830.971	197.279
831.099	195.558
831.227	221.202
831.355	187.202
831.483	195.635
831.612	191.356
831.740	188.788
831.868	190.913
831.996	197.452
832.124	191.596
832.252	197.625
832.380	190.827
832.508	191.433
832.637	190.769
832.765	197.490
832.893	196.433
833.021	187.942
833.149	183.481
833.277	189.269
833.405	196.327
833.533	185.760
833.662	191.548
833.790	188.269
833.918	192.933
834.046	189.240
834.174	184.202
834.302	192.702
834.430	186.990
834.558	186.423
834.687	192.712
834.815	187.548
834.943	186.673
835.071	184.625
835.199	189.788
835.327	188.298
835.455	196.375
835.583	184.942
835.712	184.163
835.840	190.654
835.968	183.712
836.096	195.308
836.224	185.154
836.352	189.990
836.480	184.115
836.608	181.865
836.737	187.442
836.865	178.952
836.993	189.654
837.121	193.452
837.249	189.644
837.377	183.010
837.505	177.337
837.633	186.413
837.762	185.587
837.890	185.173
838.018	180.923
838.146	179.077
838.274	184.423
838.402	180.788
838.530	195.404
838.658	188.644
838.787	193.971
838.915	179.471
839.043	187.654
839.171	180.212
839.299	183.115
839.427	200.962
839.555	187.163
839.683	178.577
839.812	177.904
839.940	177.038
840.068	184.587
840.196	208.423
840.324	198.846
840.452	184.885
840.580	177.971
840.708	171.827
840.837	180.240
840.965	182.394
841.093	176.394
841.221	177.298
841.349	175.538
841.477	171.404
841.605	177.712
841.733	180.288
841.862	186.202
841.990	181.644
842.118	174.923
842.246	179.923
842.374	171.962
842.502	189.577
842.630	176.712
842.758	176.125
842.887	181.144
843.015	189.798
843.143	174.394
843.271	176.471
843.399	178.471
843.527	178.337
843.655	171.269
843.783	172.962
843.912	173.019
844.040	172.875
844.168	175.462
844.296	187.327
844.424	180.308
844.552	180.846
844.680	176.337
844.808	176.885
844.937	175.202
845.065	175.106
845.193	189.308
845.321	179.760
845.449	180.038
845.577	177.327
845.705	174.654
845.833	172.279
845.962	181.404
846.090	176.702
846.218	182.644
846.346	182.798
846.474	175.788
846.602	170.740
846.730	175.702
846.858	173.904
846.987	171.308
847.115	182.404
847.243	186.240
847.371	168.154
847.499	170.808
847.627	174.288
847.755	173.250
847.883	185.058
848.012	182.404
848.140	166.731
848.268	168.740
848.396	176.260
848.524	186.500
848.652	171.125
848.780	167.365
848.908	173.192
849.037	172.788
849.165	172.577
849.293	179.548
849.421	172.173
849.549	173.404
849.677	172.529
849.805	177.558
849.933	171.538
850.062	176.327
850.190	171.606
850.318	167.471
850.446	173.769
850.574	173.288
850.702	171.625
850.830	168.606
850.958	169.106
851.087	173.837
851.215	167.231
851.343	170.827
851.471	174.154
851.599	178.827
851.727	182.577
851.855	175.346
851.983	175.375
852.112	169.587
852.240	179.827
852.368	182.510
852.496	172.904
852.624	172.625
852.752	180.837
852.880	172.712
853.008	171.952
853.137	172.740
853.265	173.702
853.393	172.423
853.521	168.654
853.649	178.490
853.777	171.163
853.905	161.635
854.033	168.212
854.162	166.346
854.290	169.885
854.418	184.317
854.546	198.000
854.674	184.260
854.802	171.240
854.930	166.385
855.058	170.365
855.187	168.038
855.315	196.913
855.443	170.096
855.571	168.260
855.699	174.913
855.827	163.913
855.955	166.788
856.083	168.750
856.212	169.317
856.340	170.385
856.468	171.577
856.596	170.587
856.724	175.885
856.852	185.135
856.980	165.346
857.108	164.913
857.237	162.048
857.365	175.808
857.493	172.538
857.621	170.615
857.749	167.346
857.877	165.760
858.005	164.375
858.133	167.606
858.262	163.471
858.390	166.106
858.518	164.913
858.646	174.115
858.774	159.933
858.902	164.798
859.030	169.894
859.158	169.942
859.287	168.894
859.415	169.942
859.543	163.692
859.671	167.692
859.799	174.125
859.927	165.846
860.055	160.740
860.183	161.212
860.312	162.962
860.440	167.135
860.568	158.510
860.696	178.058
860.824	175.769
860.952	162.615
861.080	167.250
861.208	163.106
861.337	159.798
861.465	175.106
861.593	165.500
861.721	171.692
861.849	171.635
861.977	163.519
862.105	168.365
862.233	165.385
862.362	161.760
862.490	160.385
862.618	165.481
862.746	165.923
862.874	166.712
863.002	168.827
863.130	168.212
863.258	170.365
863.387	169.769
863.515	168.731
863.643	175.423
863.771	167.250
863.899	170.269
864.027	167.500
864.155	191.404
864.283	162.346
864.412	163.125
864.540	168.971
864.668	158.577
864.796	164.125
864.924	163.385
865.052	162.394
865.180	174.029
865.308	166.500
865.437	165.971
865.565	160.837
865.693	163.567
865.821	158.596
865.949	183.279
866.077	167.260
866.205	163.385
866.333	166.606
866.462	158.846
866.590	169.192
866.718	168.173
866.846	161.981
866.974	162.587
867.102	158.750
867.230	171.750
867.358	164.702
867.487	173.346
867.615	174.077
867.743	160.837
867.871	171.913
867.999	166.673
868.127	174.327
868.255	174.663
868.383	157.077
868.512	166.356
868.640	165.135
868.768	163.375
868.896	172.240
869.024	159.644
869.152	157.740
869.280	159.404
869.408	161.827
869.537	157.356
869.665	159.692
869.793	164.644
869.921	165.279
870.049	157.673
870.177	160.471
870.305	155.067
870.433	161.173
870.562	167.096
870.690	164.154
870.818	168.029
870.946	161.308
871.074	155.106
871.202	160.981
871.330	155.356
871.458	165.135
871.587	162.337
871.715	163.519
871.843	167.019
871.971	168.529
872.099	155.298
872.227	161.481
872.355	159.769
872.483	157.087
872.612	166.567
872.740	160.875
872.868	159.712
872.996	167.067
873.124	171.769
873.252	162.894
873.380	155.721
873.508	169.269
873.637	169.375
873.765	157.788
873.893	160.750
874.021	162.760
874.149	161.231
874.277	159.038
874.405	168.365
874.533	168.019
874.662	156.413
874.790	166.471
874.918	158.673
875.046	164.760
875.174	159.894
875.302	159.337
875.430	157.779
875.558	164.337
875.687	168.885
875.815	160.337
875.943	165.788
876.071	161.606
876.199	165.942
876.327	162.442
876.455	163.606
876.583	156.490
876.712	169.510
876.840	161.635
876.968	157.288
877.096	162.625
877.224	162.423
877.352	156.413
877.480	160.615
877.608	169.077
877.737	164.375
877.865	155.462
877.993	162.029
878.121	166.779
878.249	160.346
878.377	156.404
878.505	163.558
878.633	165.404
878.762	155.356
878.890	160.125
879.018	166.769
879.146	159.404
879.274	184.817
879.402	163.048
879.530	158.933
879.658	163.500
879.787	160.875
879.915	158.837
880.043	159.615
880.171	196.442
880.299	160.192
880.427	168.721
880.555	158.615
880.683	165.038
880.812	162.308
880.940	161.096
881.068	166.433
881.196	157.433
881.324	157.962
881.452	156.904
881.580	163.750
881.708	169.240
881.837	163.798
881.965	160.019
882.093	154.442
882.221	153.625
882.349	152.212
882.477	161.990
882.605	159.010
882.733	166.635
882.862	156.029
882.990	171.202
883.118	166.635
883.246	168.173
883.374	159.596
883.502	164.240
883.630	163.192
883.758	160.096
883.887	162.692
884.015	166.558
884.143	162.529
884.271	162.000
884.399	154.106
884.527	163.894
884.655	160.260
884.783	162.577
884.912	183.067
885.040	166.433
885.168	156.125
885.296	170.529
885.424	158.385
885.552	161.990
885.680	171.846
885.808	162.942
885.937	168.154
886.065	168.971
886.193	159.413
886.321	160.490
886.449	159.923
886.577	159.702
886.705	170.279
886.833	153.365
886.962	160.010
887.090	163.654
887.218	159.577
887.346	160.260
887.474	156.375
887.602	158.615
887.730	155.394
887.858	155.981
887.987	157.452
888.115	162.856
888.243	156.212
888.371	172.240
888.499	161.452
888.627	157.865
888.755	169.394
888.883	159.885
889.012	163.385
889.140	157.971
889.268	164.673
889.396	153.000
889.524	166.240
889.652	152.115
889.780	158.702
889.908	159.058
890.037	165.510
890.165	158.135
890.293	164.971
890.421	161.798
890.549	150.260
890.677	155.558
890.805	159.173
890.933	157.394
891.062	158.712
891.190	160.885
891.318	156.615
891.446	159.135
891.574	150.087
891.702	158.510
891.830	159.875
891.958	168.202
892.087	165.788
892.215	162.846
892.343	160.048
892.471	165.038
892.599	155.404
892.727	163.337
892.855	179.038
892.983	149.712
893.112	156.077
893.240	168.067
893.368	156.433
893.496	167.942
893.624	163.962
893.752	180.490
893.880	164.192
894.008	164.587
894.137	160.067
894.265	166.010
894.393	159.106
894.521	163.942
894.649	158.058
894.777	152.942
894.905	198.952
895.033	160.288
895.162	156.548
895.290	165.202
895.418	161.885
895.546	192.279
895.674	165.144
895.802	200.365
895.930	164.769
896.058	155.183
896.187	159.269
896.315	157.558
896.443	167.558
896.571	180.923
896.699	160.154
896.827	161.019
896.955	163.125
897.083	163.644
897.212	159.135
897.340	157.615
897.468	159.663
897.596	159.625
897.724	161.154
897.852	154.750
897.980	152.288
898.108	166.942
898.237	160.827
898.365	158.260
898.493	162.519
898.621	159.788
898.749	159.837
898.877	161.029
899.005	159.029
899.133	159.702
899.262	170.404
899.390	156.779
899.518	167.212
899.646	159.048
899.774	150.837
899.902	152.567
900.030	168.442
900.158	158.317
900.287	160.260
900.415	155.433
900.543	161.202
900.671	165.212
900.799	158.394
900.927	154.231
901.055	168.827
901.183	167.625
901.312	166.788
901.440	154.750
901.568	155.962
901.696	157.625
901.824	158.327
901.952	155.567
902.080	165.183
902.208	159.538
902.337	167.904
902.465	157.058
902.593	172.904
902.721	182.000
902.849	178.260
902.977	161.875
903.105	159.481
903.233	162.712
903.362	152.567
903.490	168.173
903.618	163.519
903.746	152.654
903.874	161.163
904.002	158.712
904.130	170.644
904.258	153.125
904.387	163.548
904.515	152.596
904.643	161.865
904.771	156.000
904.899	158.462
905.027	165.519
905.155	161.308
905.283	154.154
905.412	175.413
905.540	159.288
905.668	159.808
905.796	159.788
905.924	160.981
906.052	161.538
906.180	167.048
906.308	156.673
906.437	159.712
906.565	163.135
906.693	168.173
906.821	157.288
906.949	160.096
907.077	154.183
907.205	167.923
907.333	154.817
907.462	157.356
907.590	159.894
907.718	157.288
907.846	163.837
907.974	154.635
908.102	163.365
908.230	164.106
908.358	158.587
908.487	154.212
908.615	167.538
908.743	170.250
908.871	159.577
908.999	156.394
909.127	158.327
909.255	167.683
909.383	155.269
909.512	153.385
909.640	173.904
909.768	158.846
909.896	165.567
910.024	166.327
910.152	169.923
910.280	167.000
910.408	156.587
910.537	158.625
910.665	165.221
910.793	163.827
910.921	167.740
911.049	170.923
911.177	172.673
911.305	160.808
911.433	190.923
911.562	167.154
911.690	166.452
911.818	164.587
911.946	162.452
912.074	167.779
912.202	160.452
912.330	180.279
912.458	157.654
912.587	164.990
912.715	164.202
912.843	173.971
912.971	168.500
913.099	181.760
913.227	171.269
913.355	170.135
913.483	176.875
913.612	175.413
913.740	195.856
913.868	167.135
