70_130_0_Pol_at_750.00nm_cut_at_1179.00Y_01.dat
03.07.2023
11:14:02
cut middle at Y: 1179.00
top cursor: 1231 down cursor: 1127 mean of: 104 lines , 2560 datapoints
wavelength(nm)	intensity[arb. units]
585.996	11798.327
586.124	11561.067
586.252	11581.240
586.380	11611.885
586.508	11608.692
586.637	11749.058
586.765	11692.615
586.893	11730.952
587.021	11793.212
587.149	11780.413
587.277	11839.837
587.405	11820.644
587.533	11885.346
587.662	11946.856
587.790	11877.769
587.918	11912.317
588.046	11860.827
588.174	11915.375
588.302	11886.067
588.430	11919.173
588.558	11959.740
588.687	11923.942
588.815	11940.567
588.943	11935.317
589.071	11935.875
589.199	11957.144
589.327	11928.529
589.455	12004.885
589.583	11928.058
589.712	11884.990
589.840	11903.288
589.968	11894.856
590.096	11950.990
590.224	11915.375
590.352	11997.625
590.480	11924.808
590.608	11944.731
590.737	11943.125
590.865	11986.875
590.993	11926.019
591.121	11932.837
591.249	11900.904
591.377	11944.183
591.505	12039.212
591.633	11938.173
591.762	11971.163
591.890	11974.308
592.018	12074.894
592.146	12000.625
592.274	11999.952
592.402	11995.125
592.530	12175.865
592.658	12118.096
592.787	12051.567
592.915	12129.606
593.043	12057.240
593.171	12152.923
593.299	12131.971
593.427	12126.808
593.555	12147.490
593.683	12166.288
593.812	12209.481
593.940	12206.221
594.068	12242.250
594.196	12253.462
594.324	12275.481
594.452	12454.462
594.580	12370.885
594.708	12425.913
594.837	12376.394
594.965	12514.606
595.093	12455.971
595.221	12570.875
595.349	12560.798
595.477	12572.827
595.605	12624.404
595.733	12609.462
595.862	12660.202
595.990	12658.817
596.118	12720.913
596.246	12770.644
596.374	12683.096
596.502	12734.990
596.630	12726.837
596.758	12761.635
596.887	12797.837
597.015	12817.817
597.143	12814.038
597.271	12798.500
597.399	12873.846
597.527	12832.606
597.655	12794.827
597.783	12873.962
597.912	12845.125
598.040	12866.923
598.168	12845.240
598.296	12831.942
598.424	12982.673
598.552	12836.788
598.680	12859.471
598.808	12980.923
598.937	12880.990
599.065	12870.519
599.193	12935.125
599.321	12962.269
599.449	12880.365
599.577	12883.519
599.705	12888.971
599.833	12874.279
599.962	12823.663
600.090	12879.731
600.218	12892.654
600.346	12859.462
600.474	12856.058
600.602	12848.904
600.730	12852.192
600.858	12871.394
600.987	12943.500
601.115	12894.538
601.243	12987.317
601.371	12967.173
601.499	13006.731
601.627	13004.625
601.755	12983.942
601.883	13022.337
602.012	12933.683
602.140	13079.048
602.268	13043.510
602.396	13198.663
602.524	13095.721
602.652	13177.750
602.780	13154.423
602.908	13212.712
603.037	13308.971
603.165	13281.221
603.293	13329.673
603.421	13357.000
603.549	13395.173
603.677	13417.654
603.805	13487.433
603.933	13499.337
604.062	13587.952
604.190	13635.356
604.318	13651.067
604.446	13672.067
604.574	13727.971
604.702	13780.356
604.830	13785.067
604.958	13789.298
605.087	13897.308
605.215	13932.183
605.343	14029.163
605.471	13984.231
605.599	14003.462
605.727	14130.308
605.855	14101.721
605.983	14160.567
606.112	14223.413
606.240	14170.904
606.368	14203.673
606.496	14203.558
606.624	14276.288
606.752	14249.413
606.880	14311.577
607.008	14288.029
607.137	14298.154
607.265	14388.471
607.393	14356.096
607.521	14427.548
607.649	14332.615
607.777	14331.904
607.905	14398.481
608.033	14332.702
608.162	14381.760
608.290	14340.683
608.418	14472.058
608.546	14471.712
608.674	14458.952
608.802	14398.154
608.930	14401.904
609.058	14357.510
609.187	14407.115
609.315	14361.538
609.443	14367.298
609.571	14505.029
609.699	14342.106
609.827	14399.952
609.955	14376.029
610.083	14327.096
610.212	14326.731
610.340	14290.308
610.468	14324.788
610.596	14292.798
610.724	14276.077
610.852	14333.183
610.980	14304.663
611.108	14239.971
611.237	14289.942
611.365	14327.019
611.493	14288.808
611.621	14283.337
611.749	14342.663
611.877	14380.029
612.005	14336.346
612.133	14399.500
612.262	14408.865
612.390	14447.529
612.518	14490.769
612.646	14432.788
612.774	14524.558
612.902	14537.788
613.030	14521.038
613.158	14534.471
613.287	14609.558
613.415	14548.500
613.543	14616.558
613.671	14644.529
613.799	14676.817
613.927	14719.221
614.055	14721.702
614.183	14748.452
614.312	14748.904
614.440	14927.365
614.568	14835.067
614.696	14886.029
614.824	14900.885
614.952	14918.221
615.080	14960.750
615.208	15036.125
615.337	15125.788
615.465	15073.317
615.593	15168.250
615.721	15129.587
615.849	15179.413
615.977	15183.365
616.105	15218.154
616.233	15252.490
616.362	15326.971
616.490	15320.490
616.618	15356.837
616.746	15447.769
616.874	15455.750
617.002	15488.904
617.130	15499.125
617.258	15455.808
617.387	15514.808
617.515	15582.317
617.643	15516.779
617.771	15594.981
617.899	15553.942
618.027	15627.038
618.155	15676.038
618.283	15687.567
618.412	15694.106
618.540	15747.885
618.668	15751.481
618.796	15742.548
618.924	15712.683
619.052	15753.538
619.180	15749.692
619.308	15717.096
619.437	15708.808
619.565	15750.327
619.693	15730.481
619.821	15755.385
619.949	15705.750
620.077	15734.538
620.205	15802.750
620.333	15790.529
620.462	15776.067
620.590	15775.173
620.718	15795.837
620.846	15835.962
620.974	15810.702
621.102	15844.212
621.230	15809.087
621.358	15928.231
621.487	15785.365
621.615	15849.038
621.743	15738.404
621.871	15825.135
621.999	15760.510
622.127	15791.625
622.255	15765.683
622.383	15751.240
622.512	15751.740
622.640	15741.654
622.768	15811.731
622.896	15861.731
623.024	15791.933
623.152	15774.471
623.280	15847.471
623.408	15779.779
623.537	15801.240
623.665	15720.442
623.793	15805.740
623.921	15785.067
624.049	15774.442
624.177	15738.769
624.305	15726.808
624.433	15758.817
624.562	15806.433
624.690	15872.038
624.818	15702.067
624.946	15726.471
625.074	15671.673
625.202	15695.779
625.330	15739.913
625.458	15881.010
625.587	15726.471
625.715	15793.154
625.843	15692.769
625.971	15765.433
626.099	15729.317
626.227	15746.106
626.355	15731.769
626.483	15799.106
626.612	15734.212
626.740	15793.019
626.868	15757.692
626.996	15836.635
627.124	15773.942
627.252	15759.029
627.380	15780.846
627.508	15767.760
627.637	15762.827
627.765	15849.529
627.893	15844.519
628.021	15924.510
628.149	15852.750
628.277	15927.519
628.405	15902.125
628.533	15880.462
628.662	15877.192
628.790	16000.683
628.918	15927.817
629.046	16093.625
629.174	15975.500
629.302	16006.010
629.430	15994.212
629.558	16059.913
629.687	16018.808
629.815	16078.221
629.943	16182.346
630.071	16139.077
630.199	16109.788
630.327	16173.250
630.455	16214.288
630.583	16221.817
630.712	16185.942
630.840	16257.663
630.968	16242.760
631.096	16272.702
631.224	16271.423
631.352	16414.808
631.480	16355.221
631.608	16474.048
631.737	16351.721
631.865	16457.615
631.993	16425.240
632.121	16550.500
632.249	16449.750
632.377	16421.683
632.505	16445.721
632.633	16504.798
632.762	16406.462
632.890	16417.856
633.018	16477.163
633.146	16390.192
633.274	16399.279
633.402	16455.673
633.530	16429.788
633.658	16400.558
633.787	16416.788
633.915	16424.490
634.043	16441.433
634.171	16473.375
634.299	16436.942
634.427	16370.279
634.555	16601.385
634.683	16364.837
634.812	16381.971
634.940	16351.558
635.068	16331.000
635.196	16320.019
635.324	16296.798
635.452	16278.635
635.580	16364.413
635.708	16230.375
635.837	16282.433
635.965	16227.625
636.093	16187.981
636.221	16174.587
636.349	16114.904
636.477	16094.798
636.605	16138.663
636.733	16058.048
636.862	16047.519
636.990	16047.913
637.118	16036.077
637.246	15977.529
637.374	16100.904
637.502	15906.433
637.630	15919.904
637.758	15879.096
637.887	15822.221
638.015	15972.529
638.143	15887.587
638.271	15777.971
638.399	15834.548
638.527	15732.163
638.655	15748.183
638.783	15691.567
638.912	15777.721
639.040	15666.385
639.168	15629.779
639.296	15648.346
639.424	15688.587
639.552	15630.058
639.680	15655.615
639.808	15614.125
639.937	15547.654
640.065	15539.875
640.193	15540.154
640.321	15636.952
640.449	15596.538
640.577	15504.721
640.705	15542.260
640.833	15518.856
640.962	15583.692
641.090	15479.413
641.218	15470.538
641.346	15569.885
641.474	15508.087
641.602	15477.163
641.730	15470.298
641.858	15498.385
641.987	15467.000
642.115	15646.298
642.243	15487.269
642.371	15694.712
642.499	15499.894
642.627	15565.702
642.755	15488.942
642.883	15521.067
643.012	15519.067
643.140	15558.337
643.268	15554.577
643.396	15495.423
643.524	15518.875
643.652	15597.240
643.780	15470.394
643.908	15480.500
644.037	15605.606
644.165	15525.500
644.293	15639.894
644.421	15458.163
644.549	15515.087
644.677	15532.538
644.805	15504.481
644.933	15421.413
645.062	15512.087
645.190	15586.135
645.318	15499.375
645.446	15433.625
645.574	15405.750
645.702	15475.067
645.830	15424.731
645.958	15351.981
646.087	15376.952
646.215	15321.183
646.343	15352.106
646.471	15498.913
646.599	15328.125
646.727	15317.827
646.855	15309.548
646.983	15279.625
647.112	15328.337
647.240	15262.481
647.368	15302.394
647.496	15239.260
647.624	15197.779
647.752	15202.962
647.880	15175.635
648.008	15178.596
648.137	15198.269
648.265	15118.029
648.393	15184.933
648.521	15089.673
648.649	15192.404
648.777	15091.346
648.905	15055.913
649.033	15071.327
649.162	14944.894
649.290	14895.077
649.418	14887.269
649.546	15049.144
649.674	14852.250
649.802	14824.115
649.930	14744.529
650.058	14705.635
650.187	14734.529
650.315	14696.567
650.443	14721.423
650.571	14610.240
650.699	14617.308
650.827	14596.077
650.955	14523.433
651.083	14586.231
651.212	14492.510
651.340	14532.077
651.468	14419.692
651.596	14418.654
651.724	14411.750
651.852	14315.000
651.980	14309.808
652.108	14270.904
652.237	14240.471
652.365	14226.202
652.493	14187.904
652.621	14172.577
652.749	14128.577
652.877	14105.846
653.005	14118.856
653.133	14076.913
653.262	13998.548
653.390	13984.490
653.518	14130.923
653.646	13934.154
653.774	13912.067
653.902	14027.298
654.030	13925.481
654.158	13831.769
654.287	13856.558
654.415	13814.750
654.543	13846.481
654.671	13771.933
654.799	13725.087
654.927	13718.894
655.055	13677.942
655.183	13667.365
655.312	13648.500
655.440	13630.923
655.568	13577.221
655.696	13622.135
655.824	13544.490
655.952	13524.144
656.080	13463.904
656.208	13478.683
656.337	13515.538
656.465	13603.856
656.593	13394.010
656.721	13417.779
656.849	13504.644
656.977	13273.125
657.105	13273.558
657.233	13311.865
657.362	13297.423
657.490	13254.548
657.618	13233.875
657.746	13162.635
657.874	13061.981
658.002	13040.750
658.130	12987.971
658.258	13008.856
658.387	12957.548
658.515	12900.846
658.643	12919.558
658.771	12963.490
658.899	12847.192
659.027	12871.077
659.155	12830.827
659.283	12785.346
659.412	12795.788
659.540	12761.308
659.668	12791.096
659.796	12810.817
659.924	12724.673
660.052	12832.125
660.180	12689.077
660.308	12744.673
660.437	12709.125
660.565	12613.587
660.693	12526.500
660.821	12691.308
660.949	12477.644
661.077	12548.606
661.205	12619.587
661.333	12431.942
661.462	12386.298
661.590	12524.769
661.718	12410.500
661.846	12419.769
661.974	12328.317
662.102	12291.346
662.230	12340.106
662.358	12168.346
662.487	12269.885
662.615	12222.452
662.743	12213.231
662.871	12207.279
662.999	12079.067
663.127	12114.385
663.255	12067.962
663.383	12179.106
663.512	12010.471
663.640	12064.154
663.768	12036.471
663.896	11972.500
664.024	11952.048
664.152	11917.038
664.280	11987.606
664.408	11879.875
664.537	11856.510
664.665	11870.692
664.793	11835.933
664.921	11797.856
665.049	11838.212
665.177	11723.510
665.305	11734.808
665.433	11757.913
665.562	11881.606
665.690	11714.413
665.818	11848.971
665.946	11641.548
666.074	11613.962
666.202	11620.087
666.330	11554.019
666.458	11925.308
666.587	11508.702
666.715	11511.904
666.843	11466.962
666.971	11487.913
667.099	11509.365
667.227	11499.481
667.355	11476.558
667.483	11422.538
667.612	11409.827
667.740	11372.087
667.868	11308.875
667.996	11275.962
668.124	11310.558
668.252	11373.038
668.380	11244.885
668.508	11240.490
668.637	11200.750
668.765	11207.606
668.893	11148.115
669.021	11091.231
669.149	11155.625
669.277	11043.106
669.405	11147.817
669.533	11076.625
669.662	10985.163
669.790	10977.904
669.918	10964.019
670.046	11050.962
670.174	10888.202
670.302	10855.212
670.430	10810.500
670.558	10826.173
670.687	10934.375
670.815	10758.500
670.943	10763.135
671.071	10663.183
671.199	10624.048
671.327	10624.500
671.455	10639.558
671.583	10576.625
671.712	10541.288
671.840	10570.894
671.968	10668.683
672.096	10617.923
672.224	10411.192
672.352	10383.837
672.480	10333.308
672.608	10366.452
672.737	10277.279
672.865	10233.087
672.993	10174.615
673.121	10202.269
673.249	10180.471
673.377	10108.000
673.505	10083.269
673.633	10131.000
673.762	10010.288
673.890	10041.000
674.018	10027.913
674.146	9946.923
674.274	9902.183
674.402	9968.971
674.530	9868.394
674.658	9811.769
674.787	9765.260
674.915	9899.067
675.043	9735.250
675.171	9703.375
675.299	9654.144
675.427	9620.394
675.555	9585.981
675.683	9599.240
675.812	9548.692
675.940	9527.365
676.068	9470.904
676.196	9475.538
676.324	9388.856
676.452	9361.077
676.580	9313.731
676.708	9277.462
676.837	9253.490
676.965	9339.933
677.093	9358.087
677.221	9243.269
677.349	9146.058
677.477	9190.750
677.605	9072.577
677.733	9092.500
677.862	9060.260
677.990	9053.913
678.118	9049.635
678.246	8980.154
678.374	9018.144
678.502	8943.260
678.630	8853.173
678.758	8857.202
678.887	8984.067
679.015	8762.885
679.143	8748.981
679.271	8721.529
679.399	8713.115
679.527	8693.500
679.655	8702.115
679.783	8607.952
679.912	8580.346
680.040	8742.548
680.168	8528.365
680.296	8550.981
680.424	8518.048
680.552	8469.721
680.680	8459.500
680.808	8415.913
680.937	8373.029
681.065	8411.606
681.193	8346.442
681.321	8303.490
681.449	8323.308
681.577	8258.865
681.705	8255.346
681.833	8246.750
681.962	8213.279
682.090	8151.740
682.218	8152.510
682.346	8167.317
682.474	8086.990
682.602	8107.096
682.730	8131.779
682.858	8040.298
682.987	8038.635
683.115	8038.846
683.243	7982.279
683.371	7958.529
683.499	7946.923
683.627	7981.231
683.755	7908.788
683.883	7881.683
684.012	7889.394
684.140	7829.260
684.268	7824.144
684.396	7872.423
684.524	7782.221
684.652	7784.413
684.780	7783.029
684.908	7760.125
685.037	7736.904
685.165	7711.087
685.293	7779.644
685.421	7708.433
685.549	7678.433
685.677	7618.856
685.805	7667.346
685.933	7595.269
686.062	7609.173
686.190	7561.019
686.318	7537.327
686.446	7485.029
686.574	7461.231
686.702	7515.500
686.830	7444.692
686.958	7499.913
687.087	7378.654
687.215	7403.962
687.343	7388.577
687.471	7487.817
687.599	7282.827
687.727	7258.587
687.855	7236.510
687.983	7202.567
688.112	7263.413
688.240	7226.788
688.368	7210.221
688.496	7152.048
688.624	7111.885
688.752	7268.471
688.880	7093.096
689.008	7098.625
689.137	7061.317
689.265	7023.904
689.393	7034.269
689.521	6980.317
689.649	7081.673
689.777	6985.865
689.905	7019.942
690.033	6899.769
690.162	6839.077
690.290	6922.375
690.418	6828.452
690.546	6872.385
690.674	6847.673
690.802	6845.212
690.930	6789.721
691.058	6794.260
691.187	6693.010
691.315	6708.798
691.443	6701.577
691.571	6701.183
691.699	6641.298
691.827	6597.231
691.955	6594.442
692.083	6566.702
692.212	6546.308
692.340	6555.125
692.468	6567.702
692.596	6525.596
692.724	6466.452
692.852	6492.529
692.980	6485.269
693.108	6484.750
693.237	6375.952
693.365	6352.654
693.493	6326.923
693.621	6346.115
693.749	6268.865
693.877	6345.019
694.005	6213.990
694.133	6250.423
694.262	6303.317
694.390	6158.856
694.518	6181.240
694.646	6155.413
694.774	6088.356
694.902	6086.096
695.030	6078.048
695.158	6053.683
695.287	6066.327
695.415	6004.144
695.543	5984.394
695.671	5952.981
695.799	6024.183
695.927	5934.442
696.055	5928.433
696.183	5848.481
696.312	6011.788
696.440	5855.663
696.568	5833.615
696.696	5719.971
696.824	5706.760
696.952	5721.462
697.080	5697.663
697.208	5630.385
697.337	5644.519
697.465	5628.317
697.593	5574.202
697.721	5699.692
697.849	5555.144
697.977	5593.019
698.105	5600.769
698.233	5540.308
698.362	5452.990
698.490	5575.356
698.618	5431.058
698.746	5399.875
698.874	5484.990
699.002	5414.385
699.130	5401.413
699.258	5346.798
699.387	5284.750
699.515	5336.298
699.643	5324.798
699.771	5370.452
699.899	5273.635
700.027	5187.125
700.155	5249.433
700.283	5144.077
700.412	5150.452
700.540	5192.452
700.668	5195.894
700.796	5085.096
700.924	5143.779
701.052	5116.865
701.180	5101.385
701.308	5006.442
701.437	4971.606
701.565	4956.375
701.693	5009.673
701.821	5136.327
701.949	4900.038
702.077	4935.067
702.205	4975.067
702.333	4882.327
702.462	4849.375
702.590	4880.183
702.718	4789.538
702.846	4954.192
702.974	4751.750
703.102	4756.125
703.230	4769.846
703.358	4704.750
703.487	4687.048
703.615	4700.779
703.743	4644.817
703.871	4616.260
703.999	4611.692
704.127	4599.288
704.255	4554.923
704.383	4580.365
704.512	4606.615
704.640	4568.692
704.768	4605.471
704.896	4492.731
705.024	4427.106
705.152	4458.394
705.280	4469.231
705.408	4380.144
705.537	4354.365
705.665	4369.394
705.793	4331.519
705.921	4341.010
706.049	4278.933
706.177	4310.365
706.305	4239.894
706.433	4284.692
706.562	4256.308
706.690	4245.856
706.818	4231.144
706.946	4153.856
707.074	4139.029
707.202	4107.952
707.330	4130.894
707.458	4078.683
707.587	4068.962
707.715	4085.356
707.843	4091.019
707.971	4088.346
708.099	3992.452
708.227	3980.135
708.355	3994.779
708.483	3947.029
708.612	3965.673
708.740	3911.673
708.868	3903.587
708.996	3955.865
709.124	3948.779
709.252	3888.673
709.380	3894.596
709.508	3843.038
709.637	3865.048
709.765	3828.673
709.893	3867.317
710.021	3774.308
710.149	3880.606
710.277	3737.490
710.405	3748.115
710.533	3746.625
710.662	3707.250
710.790	3819.096
710.918	3658.760
711.046	3725.154
711.174	3665.125
711.302	3699.846
711.430	3659.615
711.558	3679.683
711.687	3628.231
711.815	3594.413
711.943	3559.154
712.071	3572.750
712.199	3585.962
712.327	3654.942
712.455	3530.019
712.583	3679.663
712.712	3518.856
712.840	3546.212
712.968	3483.000
713.096	3489.250
713.224	3445.942
713.352	3444.183
713.480	3384.077
713.608	3393.548
713.737	3368.760
713.865	3421.510
713.993	3405.577
714.121	3391.327
714.249	3320.240
714.377	3351.942
714.505	3294.865
714.633	3323.490
714.762	3291.356
714.890	3297.885
715.018	3285.548
715.146	3302.837
715.274	3231.337
715.402	3238.058
715.530	3212.683
715.658	3257.606
715.787	3215.644
715.915	3294.163
716.043	3184.923
716.171	3301.471
716.299	3119.692
716.427	3217.615
716.555	3113.125
716.683	3113.779
716.812	3077.423
716.940	3082.471
717.068	3052.875
717.196	3215.663
717.324	3092.654
717.452	3072.442
717.580	3090.029
717.708	3003.106
717.837	3002.712
717.965	3056.365
718.093	3006.000
718.221	3033.981
718.349	3057.548
718.477	2951.990
718.605	3029.423
718.733	2959.971
718.862	2967.683
718.990	2904.712
719.118	2976.779
719.246	2894.846
719.374	2886.510
719.502	2916.817
719.630	3019.702
719.758	2851.673
719.887	2829.654
720.015	2858.317
720.143	2898.971
720.271	2794.452
720.399	2855.423
720.527	2794.317
720.655	2882.510
720.783	2789.962
720.912	2769.356
721.040	2760.288
721.168	2788.933
721.296	2724.683
721.424	2752.779
721.552	2721.481
721.680	2755.798
721.808	2744.683
721.937	2700.365
722.065	2719.173
722.193	2685.490
722.321	2704.404
722.449	2684.702
722.577	2643.452
722.705	2637.404
722.833	2637.510
722.962	2642.529
723.090	2607.212
723.218	2594.471
723.346	2626.952
723.474	2585.490
723.602	2554.260
723.730	2549.596
723.858	2543.510
723.987	2561.163
724.115	2542.067
724.243	2549.462
724.371	2516.587
724.499	2511.577
724.627	2496.260
724.755	2497.029
724.883	2519.356
725.012	2561.385
725.140	2485.837
725.268	2446.558
725.396	2452.481
725.524	2472.404
725.652	2420.942
725.780	2459.183
725.908	2418.308
726.037	2405.010
726.165	2390.385
726.293	2383.240
726.421	2378.058
726.549	2380.625
726.677	2355.144
726.805	2335.644
726.933	2337.529
727.062	2317.769
727.190	2307.798
727.318	2292.913
727.446	2304.298
727.574	2281.038
727.702	2260.154
727.830	2266.385
727.958	2263.567
728.087	2277.000
728.215	2273.221
728.343	2245.183
728.471	2235.125
728.599	2247.279
728.727	2209.952
728.855	2207.625
728.983	2189.846
729.112	2188.769
729.240	2176.135
729.368	2160.029
729.496	2172.029
729.624	2163.837
729.752	2162.240
729.880	2137.490
730.008	2127.471
730.137	2133.644
730.265	2123.471
730.393	2130.740
730.521	2126.000
730.649	2085.558
730.777	2086.635
730.905	2084.885
731.033	2050.163
731.162	2068.913
731.290	2074.298
731.418	2056.433
731.546	2045.317
731.674	2043.231
731.802	2032.712
731.930	2047.654
732.058	2011.827
732.187	2012.558
732.315	2015.846
732.443	2019.202
732.571	1999.683
732.699	1975.962
732.827	1992.183
732.955	1981.981
733.083	1964.250
733.212	1973.894
733.340	1963.317
733.468	1950.596
733.596	1933.702
733.724	1925.356
733.852	1926.788
733.980	1910.827
734.108	1923.365
734.237	1917.096
734.365	1916.087
734.493	1902.519
734.621	1902.231
734.749	1898.760
734.877	1872.779
735.005	1870.183
735.133	1879.269
735.262	1876.894
735.390	1847.500
735.518	1864.702
735.646	1849.990
735.774	1850.394
735.902	1838.644
736.030	1839.173
736.158	1842.875
736.287	1849.173
736.415	1839.192
736.543	1805.394
736.671	1803.721
736.799	1803.673
736.927	1806.846
737.055	1800.990
737.183	1766.894
737.312	1769.125
737.440	1773.885
737.568	1754.356
737.696	1759.990
737.824	1764.760
737.952	1962.433
738.080	1728.510
738.208	1731.933
738.337	1731.423
738.465	1728.837
738.593	1701.029
738.721	1707.452
738.849	1712.317
738.977	1692.740
739.105	1708.029
739.233	1701.317
739.362	1688.394
739.490	1676.298
739.618	1674.308
739.746	1663.279
739.874	1654.154
740.002	1662.913
740.130	1631.471
740.258	1630.240
740.387	1664.385
740.515	1652.250
740.643	1614.192
740.771	1630.587
740.899	1602.904
741.027	1602.433
741.155	1616.769
741.283	1606.885
741.412	1610.856
741.540	1585.587
741.668	1574.298
741.796	1591.394
741.924	1567.240
742.052	1559.144
742.180	1571.885
742.308	1549.048
742.437	1546.683
742.565	1540.644
742.693	1540.837
742.821	1554.298
742.949	1522.365
743.077	1510.990
743.205	1516.538
743.333	1507.663
743.462	1502.865
743.590	1489.596
743.718	1500.269
743.846	1479.356
743.974	1512.019
744.102	1484.115
744.230	1468.865
744.358	1477.654
744.487	1455.635
744.615	1444.865
744.743	1457.365
744.871	1442.990
744.999	1437.913
745.127	1448.317
745.255	1419.990
745.383	1427.750
745.512	1409.279
745.640	1401.510
745.768	1413.423
745.896	1400.894
746.024	1386.644
746.152	1395.192
746.280	1399.135
746.408	1395.827
746.537	1374.202
746.665	1389.654
746.793	1374.471
746.921	1366.029
747.049	1361.558
747.177	1367.221
747.305	1372.942
747.433	1355.885
747.562	1340.490
747.690	1334.327
747.818	1335.712
747.946	1340.298
748.074	1324.288
748.202	1331.846
748.330	1310.788
748.458	1305.567
748.587	1312.269
748.715	1310.183
748.843	1289.721
748.971	1284.538
749.099	1303.490
749.227	1292.452
749.355	1308.452
749.483	1272.606
749.612	1296.558
749.740	1285.433
749.868	1268.058
749.996	1258.308
750.124	1269.654
750.252	1256.587
750.380	1252.125
750.508	1258.538
750.637	1240.923
750.765	1239.808
750.893	1237.779
751.021	1232.567
751.149	1224.740
751.277	1223.173
751.405	1214.481
751.533	1235.663
751.662	1198.317
751.790	1201.702
751.918	1201.538
752.046	1187.606
752.174	1184.923
752.302	1179.135
752.430	1173.202
752.558	1170.923
752.687	1171.740
752.815	1173.692
752.943	1178.865
753.071	1149.769
753.199	1163.981
753.327	1169.567
753.455	1144.548
753.583	1133.606
753.712	1123.663
753.840	1141.808
753.968	1134.990
754.096	1131.856
754.224	1126.115
754.352	1110.144
754.480	1131.394
754.608	1105.048
754.737	1111.308
754.865	1106.452
754.993	1116.538
755.121	1105.442
755.249	1074.779
755.377	1065.798
755.505	1073.173
755.633	1078.038
755.762	1072.615
755.890	1080.413
756.018	1068.125
756.146	1051.471
756.274	1045.010
756.402	1050.452
756.530	1072.135
756.658	1050.933
756.787	1039.673
756.915	1034.221
757.043	1028.942
757.171	1024.673
757.299	1040.394
757.427	1010.731
757.555	1013.125
757.683	1007.625
757.812	1013.548
757.940	1001.442
758.068	1005.067
758.196	997.221
758.324	995.067
758.452	994.538
758.580	994.548
758.708	994.067
758.837	1003.500
758.965	1000.077
759.093	975.327
759.221	958.788
759.349	961.356
759.477	955.365
759.605	955.567
759.733	962.163
759.862	946.683
759.990	943.856
760.118	935.702
760.246	950.933
760.374	947.971
760.502	940.308
760.630	929.356
760.758	928.404
760.887	924.202
761.015	920.846
761.143	925.231
761.271	907.125
761.399	907.288
761.527	923.356
761.655	918.385
761.783	894.106
761.912	894.192
762.040	911.058
762.168	889.500
762.296	883.981
762.424	887.500
762.552	888.337
762.680	874.567
762.808	894.731
762.937	874.250
763.065	867.750
763.193	865.894
763.321	852.971
763.449	852.510
763.577	847.433
763.705	867.635
763.833	859.615
763.962	842.827
764.090	838.913
764.218	836.510
764.346	824.817
764.474	829.635
764.602	834.750
764.730	825.865
764.858	833.856
764.987	829.096
765.115	819.740
765.243	810.240
765.371	809.567
765.499	811.712
765.627	809.712
765.755	811.942
765.883	807.115
766.012	797.423
766.140	792.231
766.268	784.365
766.396	795.269
766.524	787.135
766.652	777.365
766.780	777.971
766.908	785.952
767.037	786.644
767.165	771.221
767.293	782.212
767.421	774.567
767.549	756.577
767.677	785.740
767.805	757.587
767.933	762.894
768.062	751.288
768.190	746.923
768.318	755.846
768.446	746.279
768.574	741.635
768.702	746.529
768.830	751.154
768.958	739.077
769.087	745.692
769.215	741.712
769.343	741.663
769.471	746.712
769.599	729.442
769.727	728.144
769.855	717.981
769.983	757.231
770.112	718.221
770.240	712.135
770.368	713.260
770.496	714.423
770.624	719.212
770.752	712.971
770.880	718.096
771.008	704.029
771.137	702.490
771.265	694.837
771.393	692.317
771.521	698.587
771.649	709.125
771.777	727.596
771.905	746.423
772.033	719.750
772.162	687.240
772.290	687.663
772.418	691.567
772.546	686.933
772.674	681.154
772.802	675.163
772.930	683.029
773.058	674.779
773.187	674.625
773.315	672.462
773.443	667.587
773.571	678.808
773.699	667.596
773.827	679.500
773.955	683.596
774.083	675.635
774.212	656.971
774.340	662.548
774.468	655.029
774.596	653.000
774.724	660.769
774.852	665.712
774.980	657.308
775.108	648.635
775.237	648.885
775.365	645.865
775.493	650.971
775.621	638.067
775.749	646.106
775.877	656.981
776.005	648.183
776.133	634.904
776.262	641.125
776.390	629.933
776.518	627.288
776.646	643.173
776.774	629.250
776.902	623.490
777.030	625.375
777.158	632.067
777.287	632.538
777.415	626.077
777.543	628.952
777.671	624.029
777.799	623.837
777.927	626.606
778.055	623.952
778.183	618.413
778.312	613.433
778.440	608.154
778.568	626.942
778.696	621.654
778.824	614.394
778.952	616.673
779.080	604.933
779.208	600.269
779.337	598.904
779.465	612.846
779.593	606.837
779.721	607.798
779.849	610.029
779.977	598.394
780.105	597.346
780.233	600.202
780.362	599.125
780.490	590.769
780.618	597.250
780.746	589.365
780.874	593.385
781.002	593.404
781.130	585.202
781.258	580.933
781.387	600.365
781.515	589.635
781.643	578.731
781.771	580.981
781.899	592.625
782.027	582.413
782.155	572.298
782.283	573.106
782.412	589.510
782.540	584.798
782.668	573.990
782.796	571.212
782.924	581.923
783.052	582.337
783.180	570.548
783.308	569.635
783.437	561.221
783.565	571.942
783.693	565.538
783.821	568.990
783.949	567.298
784.077	562.760
784.205	565.240
784.333	557.558
784.462	561.721
784.590	551.846
784.718	542.683
784.846	561.173
784.974	565.096
785.102	549.058
785.230	560.144
785.358	546.885
785.487	548.904
785.615	546.721
785.743	547.510
785.871	557.346
785.999	552.000
786.127	546.952
786.255	536.067
786.383	535.442
786.512	546.769
786.640	543.413
786.768	534.471
786.896	533.442
787.024	529.106
787.152	532.548
787.280	549.712
787.408	530.519
787.537	543.029
787.665	539.231
787.793	530.375
787.921	523.260
788.049	519.192
788.177	524.548
788.305	517.654
788.433	530.587
788.562	514.144
788.690	511.904
788.818	524.769
788.946	519.058
789.074	509.981
789.202	507.654
789.330	505.154
789.458	516.442
789.587	510.288
789.715	513.702
789.843	515.587
789.971	510.394
790.099	498.567
790.227	509.183
790.355	507.673
790.483	507.212
790.612	503.827
790.740	507.577
790.868	499.913
790.996	512.913
791.124	517.385
791.252	501.577
791.380	496.798
791.508	495.904
791.637	497.558
791.765	481.260
791.893	496.558
792.021	505.567
792.149	487.356
792.277	496.817
792.405	480.212
792.533	499.192
792.662	486.635
792.790	490.462
792.918	501.654
793.046	485.798
793.174	476.712
793.302	482.750
793.430	482.279
793.558	487.904
793.687	480.096
793.815	469.885
793.943	490.279
794.071	473.385
794.199	473.192
794.327	478.606
794.455	474.721
794.583	477.298
794.712	474.510
794.840	465.038
794.968	465.500
795.096	484.308
795.224	455.904
795.352	504.288
795.480	460.173
795.608	458.375
795.737	458.048
795.865	452.760
795.993	461.279
796.121	453.490
796.249	454.269
796.377	455.394
796.505	460.433
796.633	457.240
796.762	445.606
796.890	453.308
797.018	446.173
797.146	457.250
797.274	454.442
797.402	437.481
797.530	439.385
797.658	443.827
797.787	462.538
797.915	447.067
798.043	440.962
798.171	447.981
798.299	434.212
798.427	448.587
798.555	445.058
798.683	441.904
798.812	462.558
798.940	479.433
799.068	471.029
799.196	439.981
799.324	441.740
799.452	426.125
799.580	426.202
799.708	434.404
799.837	432.087
799.965	417.548
800.093	425.385
800.221	417.962
800.349	419.760
800.477	416.837
800.605	416.000
800.733	427.587
800.862	419.413
800.990	416.596
801.118	415.135
801.246	418.817
801.374	422.240
801.502	409.644
801.630	414.567
801.758	413.644
801.887	405.962
802.015	413.529
802.143	397.952
802.271	406.250
802.399	402.288
802.527	396.654
802.655	403.413
802.783	402.962
802.912	399.808
803.040	398.971
803.168	394.433
803.296	404.673
803.424	393.452
803.552	400.154
803.680	391.981
803.808	392.981
803.937	397.010
804.065	393.952
804.193	399.654
804.321	409.337
804.449	407.404
804.577	394.260
804.705	405.846
804.833	389.288
804.962	391.413
805.090	387.144
805.218	381.096
805.346	381.894
805.474	387.510
805.602	393.231
805.730	394.163
805.858	380.769
805.987	378.875
806.115	375.644
806.243	390.202
806.371	377.952
806.499	375.442
806.627	365.933
806.755	377.894
806.883	381.375
807.012	371.192
807.140	380.673
807.268	363.106
807.396	372.952
807.524	371.625
807.652	377.683
807.780	366.846
807.908	363.231
808.037	384.837
808.165	374.654
808.293	354.750
808.421	366.000
808.549	362.452
808.677	371.587
808.805	375.894
808.933	364.683
809.062	362.365
809.190	374.010
809.318	367.163
809.446	355.952
809.574	370.933
809.702	357.558
809.830	344.394
809.958	367.490
810.087	362.135
810.215	356.615
810.343	364.048
810.471	355.577
810.599	346.413
810.727	359.760
810.855	344.933
810.983	354.846
811.112	350.750
811.240	349.442
811.368	354.029
811.496	355.029
811.624	351.288
811.752	347.173
811.880	362.327
812.008	354.481
812.137	360.587
812.265	346.529
812.393	348.173
812.521	340.788
812.649	345.337
812.777	336.212
812.905	347.933
813.033	348.846
813.162	341.346
813.290	334.846
813.418	342.231
813.546	336.731
813.674	337.442
813.802	336.337
813.930	334.760
814.058	336.885
814.187	334.923
814.315	332.154
814.443	331.481
814.571	333.798
814.699	324.779
814.827	333.712
814.955	336.433
815.083	324.933
815.212	332.240
815.340	322.740
815.468	336.654
815.596	327.375
815.724	330.144
815.852	331.885
815.980	327.048
816.108	324.154
816.237	327.308
816.365	336.375
816.493	324.606
816.621	327.587
816.749	312.971
816.877	384.769
817.005	330.663
817.133	322.712
817.262	321.115
817.390	313.106
817.518	321.865
817.646	310.577
817.774	307.058
817.902	307.683
818.030	305.144
818.158	321.048
818.287	311.596
818.415	309.721
818.543	306.712
818.671	315.135
818.799	308.279
818.927	305.067
819.055	331.692
819.183	310.442
819.312	327.702
819.440	309.125
819.568	305.298
819.696	306.202
819.824	304.827
819.952	309.231
820.080	304.231
820.208	301.596
820.337	306.125
820.465	302.356
820.593	300.365
820.721	300.663
820.849	297.625
820.977	298.952
821.105	299.635
821.233	290.365
821.362	303.894
821.490	291.885
821.618	302.462
821.746	308.760
821.874	295.058
822.002	288.740
822.130	292.837
822.258	299.865
822.387	292.683
822.515	297.548
822.643	287.288
822.771	293.404
822.899	292.356
823.027	285.760
823.155	287.837
823.283	300.000
823.412	297.644
823.540	285.558
823.668	281.615
823.796	287.452
823.924	285.548
824.052	284.721
824.180	284.038
824.308	281.500
824.437	295.087
824.565	284.231
824.693	273.413
824.821	275.654
824.949	285.327
825.077	282.173
825.205	270.587
825.333	275.962
825.462	281.731
825.590	276.096
825.718	274.000
825.846	277.058
825.974	274.288
826.102	271.279
826.230	282.856
826.358	281.462
826.487	271.683
826.615	272.058
826.743	265.452
826.871	279.971
826.999	267.740
827.127	275.250
827.255	269.500
827.383	270.558
827.512	267.683
827.640	273.163
827.768	288.885
827.896	262.760
828.024	274.385
828.152	269.337
828.280	266.798
828.408	261.923
828.537	262.817
828.665	267.442
828.793	267.000
828.921	266.356
829.049	266.529
829.177	263.144
829.305	260.327
829.433	258.548
829.562	259.250
829.690	262.577
829.818	266.471
829.946	256.144
830.074	260.625
830.202	254.096
830.330	264.029
830.458	248.913
830.587	267.308
830.715	255.279
830.843	249.240
830.971	262.327
831.099	255.865
831.227	284.663
831.355	250.433
831.483	252.558
831.612	256.048
831.740	251.663
831.868	250.058
831.996	258.894
832.124	256.942
832.252	260.548
832.380	251.846
832.508	250.058
832.637	251.423
832.765	255.971
832.893	253.462
833.021	245.115
833.149	245.077
833.277	252.990
833.405	254.154
833.533	240.019
833.662	248.635
833.790	242.173
833.918	249.865
834.046	246.144
834.174	242.385
834.302	248.683
834.430	243.865
834.558	242.673
834.687	249.615
834.815	244.298
834.943	240.865
835.071	244.933
835.199	246.135
835.327	237.125
835.455	251.808
835.583	238.365
835.712	239.606
835.840	243.010
835.968	233.510
836.096	245.798
836.224	236.212
836.352	241.538
836.480	235.490
836.608	237.279
836.737	238.663
836.865	231.635
836.993	244.673
837.121	247.846
837.249	241.808
837.377	231.644
837.505	226.192
837.633	234.673
837.762	236.096
837.890	233.625
838.018	233.875
838.146	234.298
838.274	230.654
838.402	229.529
838.530	243.971
838.658	233.163
838.787	234.404
838.915	224.260
839.043	240.096
839.171	227.913
839.299	228.827
839.427	250.913
839.555	231.769
839.683	225.750
839.812	226.865
839.940	224.298
840.068	227.558
840.196	252.058
840.324	249.317
840.452	234.760
840.580	223.635
840.708	217.635
840.837	223.538
840.965	223.683
841.093	225.337
841.221	224.048
841.349	225.567
841.477	216.962
841.605	219.029
841.733	223.202
841.862	229.260
841.990	224.567
842.118	218.394
842.246	222.846
842.374	208.971
842.502	227.885
842.630	220.327
842.758	216.990
842.887	227.692
843.015	235.712
843.143	217.625
843.271	220.385
843.399	216.990
843.527	218.606
843.655	217.904
843.783	218.356
843.912	213.038
844.040	211.779
844.168	218.923
844.296	228.135
844.424	224.596
844.552	218.644
844.680	220.144
844.808	211.375
844.937	212.567
845.065	215.192
845.193	226.288
845.321	215.981
845.449	220.202
845.577	217.173
845.705	209.529
845.833	208.625
845.962	218.096
846.090	209.010
846.218	225.260
846.346	217.221
846.474	214.481
846.602	206.990
846.730	209.337
846.858	206.538
846.987	209.904
847.115	218.837
847.243	216.731
847.371	204.904
847.499	201.433
847.627	207.538
847.755	207.231
847.883	216.317
848.012	213.404
848.140	198.644
848.268	204.788
848.396	205.519
848.524	215.442
848.652	205.885
848.780	202.558
848.908	210.058
849.037	205.846
849.165	200.846
849.293	211.558
849.421	204.606
849.549	204.510
849.677	204.788
849.805	212.721
849.933	198.779
850.062	207.260
850.190	200.327
850.318	198.173
850.446	207.365
850.574	205.327
850.702	202.471
850.830	194.933
850.958	199.365
851.087	204.462
851.215	196.933
851.343	199.740
851.471	201.471
851.599	205.827
851.727	213.769
851.855	199.885
851.983	206.067
852.112	197.077
852.240	205.154
852.368	207.087
852.496	195.212
852.624	194.356
852.752	208.712
852.880	200.144
853.008	196.500
853.137	197.269
853.265	199.490
853.393	196.404
853.521	190.519
853.649	202.173
853.777	197.577
853.905	190.990
854.033	191.462
854.162	192.615
854.290	189.221
854.418	208.260
854.546	220.817
854.674	211.577
854.802	193.077
854.930	188.519
855.058	200.740
855.187	188.500
855.315	217.462
855.443	190.106
855.571	191.962
855.699	200.567
855.827	184.202
855.955	187.663
856.083	192.827
856.212	188.192
856.340	193.875
856.468	191.933
856.596	193.817
856.724	193.538
856.852	206.163
856.980	186.462
857.108	183.192
857.237	181.692
857.365	194.865
857.493	194.327
857.621	187.221
857.749	188.587
857.877	191.029
858.005	183.529
858.133	187.587
858.262	183.365
858.390	182.288
858.518	180.471
858.646	195.529
858.774	181.913
858.902	181.952
859.030	185.827
859.158	189.971
859.287	184.519
859.415	188.317
859.543	183.058
859.671	190.058
859.799	193.721
859.927	185.462
860.055	179.087
860.183	180.538
860.312	181.346
860.440	185.000
860.568	174.731
860.696	192.327
860.824	195.029
860.952	177.731
861.080	183.327
861.208	185.260
861.337	179.404
861.465	194.202
861.593	183.663
861.721	188.106
861.849	189.087
861.977	181.029
862.105	183.452
862.233	181.240
862.362	182.279
862.490	176.981
862.618	180.663
862.746	182.548
862.874	182.038
863.002	186.154
863.130	185.798
863.258	184.077
863.387	185.798
863.515	181.115
863.643	186.038
863.771	179.385
863.899	182.923
864.027	183.952
864.155	205.962
864.283	178.721
864.412	176.250
864.540	182.471
864.668	175.231
864.796	180.481
864.924	177.365
865.052	172.702
865.180	194.538
865.308	181.433
865.437	178.942
865.565	172.702
865.693	180.154
865.821	172.769
865.949	192.183
866.077	180.202
866.205	174.490
866.333	180.212
866.462	169.663
866.590	178.038
866.718	180.192
866.846	174.221
866.974	178.962
867.102	172.337
867.230	182.125
867.358	175.663
867.487	182.375
867.615	183.817
867.743	173.288
867.871	184.673
867.999	175.798
868.127	185.904
868.255	191.779
868.383	168.933
868.512	176.394
868.640	174.375
868.768	172.154
868.896	185.404
869.024	176.096
869.152	176.096
869.280	169.106
869.408	169.846
869.537	171.779
869.665	171.923
869.793	175.731
869.921	175.087
870.049	165.317
870.177	174.106
870.305	169.856
870.433	173.019
870.562	179.385
870.690	171.010
870.818	179.010
870.946	169.375
871.074	163.433
871.202	172.019
871.330	166.279
871.458	173.192
871.587	173.000
871.715	172.298
871.843	174.231
871.971	178.962
872.099	166.288
872.227	174.058
872.355	170.000
872.483	165.923
872.612	175.212
872.740	168.625
872.868	170.048
872.996	171.567
873.124	180.279
873.252	170.115
873.380	169.452
873.508	178.327
873.637	177.808
873.765	165.413
873.893	168.125
874.021	170.087
874.149	167.769
874.277	167.317
874.405	174.990
874.533	174.567
874.662	166.875
874.790	175.846
874.918	164.702
875.046	172.587
875.174	171.183
875.302	167.433
875.430	165.529
875.558	173.635
875.687	176.635
875.815	166.981
875.943	170.365
876.071	174.144
876.199	172.923
876.327	167.962
876.455	166.923
876.583	164.212
876.712	175.567
876.840	168.942
876.968	167.125
877.096	169.452
877.224	171.010
877.352	161.644
877.480	171.221
877.608	179.394
877.737	172.279
877.865	164.087
877.993	171.760
878.121	172.529
878.249	167.673
878.377	165.115
878.505	169.163
878.633	170.663
878.762	164.327
878.890	168.308
879.018	175.481
879.146	164.077
879.274	193.279
879.402	169.163
879.530	166.048
879.658	167.596
879.787	169.692
879.915	164.125
880.043	164.019
880.171	202.837
880.299	172.952
880.427	173.519
880.555	162.125
880.683	174.202
880.812	167.154
880.940	164.058
881.068	174.394
881.196	166.087
881.324	163.808
881.452	162.635
881.580	171.913
881.708	175.913
881.837	170.875
881.965	165.010
882.093	159.125
882.221	165.231
882.349	158.288
882.477	169.144
882.605	170.288
882.733	171.413
882.862	158.971
882.990	175.519
883.118	171.606
883.246	175.798
883.374	165.692
883.502	173.202
883.630	170.029
883.758	165.394
883.887	169.462
884.015	165.663
884.143	171.346
884.271	164.846
884.399	160.923
884.527	167.635
884.655	161.981
884.783	168.529
884.912	190.615
885.040	169.423
885.168	160.000
885.296	176.375
885.424	165.904
885.552	168.115
885.680	177.413
885.808	171.962
885.937	170.596
886.065	173.096
886.193	164.500
886.321	165.154
886.449	161.481
886.577	163.548
886.705	172.154
886.833	158.779
886.962	166.808
887.090	167.019
887.218	162.125
887.346	160.894
887.474	162.885
887.602	163.587
887.730	161.240
887.858	162.644
887.987	161.702
888.115	164.827
888.243	166.538
888.371	176.327
888.499	163.885
888.627	160.942
888.755	173.240
888.883	165.990
889.012	169.173
889.140	163.240
889.268	170.904
889.396	159.356
889.524	172.856
889.652	157.163
889.780	161.635
889.908	164.635
890.037	171.481
890.165	165.673
890.293	170.317
890.421	166.481
890.549	157.221
890.677	159.606
890.805	166.327
890.933	158.788
891.062	161.019
891.190	164.269
891.318	160.760
891.446	160.769
891.574	154.240
891.702	159.837
891.830	164.548
891.958	174.000
892.087	167.529
892.215	167.087
892.343	167.885
892.471	168.192
892.599	155.663
892.727	168.010
892.855	181.654
892.983	155.115
893.112	161.192
893.240	172.971
893.368	159.971
893.496	171.750
893.624	167.125
893.752	182.298
893.880	166.433
894.008	165.019
894.137	158.202
894.265	168.038
894.393	163.663
894.521	167.154
894.649	164.625
894.777	154.087
894.905	199.635
895.033	161.096
895.162	164.067
895.290	168.712
895.418	162.962
895.546	194.942
895.674	168.183
895.802	204.269
895.930	166.981
896.058	158.250
896.187	163.125
896.315	156.712
896.443	169.750
896.571	184.260
896.699	160.913
896.827	161.212
896.955	162.702
897.083	166.423
897.212	160.269
897.340	161.702
897.468	161.692
897.596	161.115
897.724	158.712
897.852	158.019
897.980	153.471
898.108	166.644
898.237	161.298
898.365	161.567
898.493	165.865
898.621	157.856
898.749	158.567
898.877	162.125
899.005	160.260
899.133	162.163
899.262	177.413
899.390	158.856
899.518	164.769
899.646	156.721
899.774	155.673
899.902	158.010
900.030	170.106
900.158	159.163
900.287	162.317
900.415	156.250
900.543	162.635
900.671	168.567
900.799	160.163
900.927	155.192
901.055	173.529
901.183	170.279
901.312	169.269
901.440	156.644
901.568	157.721
901.696	159.635
901.824	156.683
901.952	154.990
902.080	164.760
902.208	161.731
902.337	168.971
902.465	156.394
902.593	172.298
902.721	181.933
902.849	179.433
902.977	162.346
903.105	164.885
903.233	165.240
903.362	154.615
903.490	167.413
903.618	164.846
903.746	154.856
903.874	164.385
904.002	160.288
904.130	170.481
904.258	153.837
904.387	161.692
904.515	151.212
904.643	164.548
904.771	155.250
904.899	158.240
905.027	164.500
905.155	158.067
905.283	154.683
905.412	173.365
905.540	165.788
905.668	160.981
905.796	162.327
905.924	159.567
906.052	161.750
906.180	164.923
906.308	155.452
906.437	157.817
906.565	160.913
906.693	169.202
906.821	153.375
906.949	160.615
907.077	156.981
907.205	168.038
907.333	156.260
907.462	156.173
907.590	163.106
907.718	155.990
907.846	164.712
907.974	155.962
908.102	159.721
908.230	159.615
908.358	160.885
908.487	154.000
908.615	169.923
908.743	169.279
908.871	160.587
908.999	156.923
909.127	160.106
909.255	168.779
909.383	156.885
909.512	156.423
909.640	171.231
909.768	156.519
909.896	160.385
910.024	165.356
910.152	166.712
910.280	168.144
910.408	156.202
910.537	156.769
910.665	165.837
910.793	161.837
910.921	164.837
911.049	168.596
911.177	169.808
911.305	161.288
911.433	188.356
911.562	165.788
911.690	167.413
911.818	162.298
911.946	164.721
912.074	171.442
912.202	158.250
912.330	179.183
912.458	160.481
912.587	166.596
912.715	166.712
912.843	176.769
912.971	168.981
913.099	183.721
913.227	174.096
913.355	171.587
913.483	177.394
913.612	174.942
913.740	194.913
913.868	168.942
