70_130_wo_Pol_at_750.00nm_cut_at_1179.00Y_01.dat
03.07.2023
11:14:48
cut middle at Y: 1179.00
top cursor: 1231 down cursor: 1127 mean of: 104 lines , 2560 datapoints
wavelength(nm)	intensity[arb. units]
585.996	30264.712
586.124	29831.019
586.252	29798.827
586.380	29782.183
586.508	29937.635
586.637	30120.769
586.765	30160.404
586.893	30285.394
587.021	30245.731
587.149	30358.663
587.277	30391.221
587.405	30428.048
587.533	30594.192
587.662	30534.038
587.790	30552.394
587.918	30625.240
588.046	30527.115
588.174	30661.712
588.302	30673.692
588.430	30750.875
588.558	30702.865
588.687	30702.375
588.815	30785.798
588.943	30698.106
589.071	30809.096
589.199	30778.317
589.327	30773.962
589.455	30848.481
589.583	30817.500
589.712	30819.192
589.840	30798.125
589.968	30821.981
590.096	30856.558
590.224	30912.029
590.352	30993.740
590.480	30912.856
590.608	30844.990
590.737	30859.452
590.865	30857.442
590.993	30835.288
591.121	30859.538
591.249	30865.000
591.377	30924.798
591.505	30943.048
591.633	30899.856
591.762	30962.298
591.890	30955.721
592.018	31100.875
592.146	31073.212
592.274	31023.375
592.402	31066.846
592.530	31286.558
592.658	31160.654
592.787	31270.663
592.915	31316.500
593.043	31291.077
593.171	31405.856
593.299	31392.202
593.427	31362.971
593.555	31455.760
593.683	31540.567
593.812	31586.635
593.940	31645.510
594.068	31766.587
594.196	31774.529
594.324	31835.173
594.452	32063.769
594.580	32050.029
594.708	32160.577
594.837	32190.404
594.965	32307.115
595.093	32381.423
595.221	32533.981
595.349	32542.558
595.477	32606.635
595.605	32673.471
595.733	32672.048
595.862	32722.365
595.990	32773.298
596.118	32862.875
596.246	32986.827
596.374	32952.962
596.502	33053.404
596.630	33082.327
596.758	33077.673
596.887	33187.875
597.015	33225.192
597.143	33256.471
597.271	33227.144
597.399	33437.077
597.527	33310.385
597.655	33341.548
597.783	33381.529
597.912	33349.375
598.040	33451.240
598.168	33434.038
598.296	33341.962
598.424	33509.481
598.552	33343.433
598.680	33430.971
598.808	33562.096
598.937	33445.106
599.065	33392.962
599.193	33481.356
599.321	33495.356
599.449	33363.452
599.577	33420.087
599.705	33379.712
599.833	33374.942
599.962	33368.933
600.090	33414.423
600.218	33328.375
600.346	33401.952
600.474	33394.817
600.602	33360.740
600.730	33474.692
600.858	33488.087
600.987	33582.452
601.115	33504.673
601.243	33623.981
601.371	33667.394
601.499	33645.548
601.627	33790.538
601.755	33767.519
601.883	33818.048
602.012	33738.904
602.140	33862.298
602.268	33910.240
602.396	34095.885
602.524	34146.106
602.652	34355.587
602.780	34293.106
602.908	34409.615
603.037	34565.548
603.165	34630.144
603.293	34724.394
603.421	34809.769
603.549	34873.250
603.677	35040.000
603.805	35129.933
603.933	35245.125
604.062	35435.067
604.190	35543.067
604.318	35625.096
604.446	35650.673
604.574	35823.548
604.702	35829.942
604.830	35969.394
604.958	36009.683
605.087	36158.538
605.215	36404.087
605.343	36442.212
605.471	36574.115
605.599	36642.519
605.727	36766.500
605.855	36820.067
605.983	36956.298
606.112	37020.346
606.240	37066.163
606.368	37123.548
606.496	37157.394
606.624	37335.856
606.752	37302.260
606.880	37316.913
607.008	37401.702
607.137	37419.375
607.265	37522.981
607.393	37569.029
607.521	37597.750
607.649	37685.913
607.777	37581.279
607.905	37591.048
608.033	37667.817
608.162	37648.779
608.290	37678.673
608.418	37804.288
608.546	37782.894
608.674	37823.087
608.802	37719.010
608.930	37748.913
609.058	37716.308
609.187	37658.740
609.315	37670.231
609.443	37665.596
609.571	37805.798
609.699	37640.010
609.827	37706.385
609.955	37702.192
610.083	37621.317
610.212	37599.519
610.340	37505.490
610.468	37619.202
610.596	37603.740
610.724	37625.577
610.852	37709.567
610.980	37617.471
611.108	37618.827
611.237	37673.192
611.365	37670.875
611.493	37680.769
611.621	37673.808
611.749	37723.577
611.877	37841.587
612.005	37885.231
612.133	37902.548
612.262	37969.433
612.390	38033.106
612.518	38121.587
612.646	38102.413
612.774	38189.298
612.902	38219.663
613.030	38352.625
613.158	38275.163
613.287	38435.519
613.415	38435.404
613.543	38498.288
613.671	38533.490
613.799	38621.837
613.927	38695.779
614.055	38862.462
614.183	38836.856
614.312	38969.856
614.440	39120.519
614.568	39131.788
614.696	39286.202
614.824	39318.144
614.952	39432.606
615.080	39553.260
615.208	39636.067
615.337	39775.808
615.465	39689.413
615.593	39942.971
615.721	39993.317
615.849	40002.606
615.977	40111.567
616.105	40209.577
616.233	40294.192
616.362	40451.000
616.490	40424.308
616.618	40531.000
616.746	40714.760
616.874	40758.654
617.002	40885.077
617.130	40970.942
617.258	40895.490
617.387	41034.913
617.515	41139.625
617.643	41111.846
617.771	41285.125
617.899	41205.606
618.027	41297.923
618.155	41343.317
618.283	41402.269
618.412	41459.923
618.540	41551.221
618.668	41514.135
618.796	41604.279
618.924	41587.990
619.052	41647.548
619.180	41647.769
619.308	41560.577
619.437	41661.615
619.565	41654.500
619.693	41676.154
619.821	41745.490
619.949	41747.750
620.077	41779.683
620.205	41822.250
620.333	41830.471
620.462	41846.731
620.590	41844.356
620.718	41864.865
620.846	41958.702
620.974	41959.337
621.102	42004.865
621.230	41957.510
621.358	42047.788
621.487	41941.750
621.615	41992.971
621.743	41899.519
621.871	42017.952
621.999	41919.904
622.127	41894.260
622.255	41955.212
622.383	41917.529
622.512	41950.048
622.640	41938.173
622.768	42012.221
622.896	42012.875
623.024	41987.702
623.152	42012.327
623.280	42020.817
623.408	42037.462
623.537	42001.596
623.665	42032.894
623.793	42070.365
623.921	41993.587
624.049	42049.760
624.177	42053.221
624.305	42054.558
624.433	42014.606
624.562	42067.067
624.690	42094.173
624.818	41965.067
624.946	41994.837
625.074	42011.692
625.202	42012.875
625.330	41988.394
625.458	42163.337
625.587	42052.837
625.715	42171.327
625.843	42029.615
625.971	42193.038
626.099	42175.519
626.227	42180.817
626.355	42194.375
626.483	42251.385
626.612	42189.481
626.740	42357.596
626.868	42323.731
626.996	42397.990
627.124	42402.010
627.252	42322.894
627.380	42458.019
627.508	42388.125
627.637	42401.933
627.765	42630.673
627.893	42634.952
628.021	42555.192
628.149	42608.510
628.277	42647.644
628.405	42713.308
628.533	42781.471
628.662	42792.269
628.790	42879.615
628.918	42948.731
629.046	43070.144
629.174	43044.837
629.302	43097.308
629.430	43092.558
629.558	43226.837
629.687	43167.760
629.815	43353.673
629.943	43510.365
630.071	43443.260
630.199	43546.538
630.327	43617.740
630.455	43640.240
630.583	43710.394
630.712	43702.952
630.840	43878.760
630.968	43836.625
631.096	43996.019
631.224	43996.038
631.352	44032.721
631.480	44076.356
631.608	44352.308
631.737	44213.596
631.865	44225.760
631.993	44298.250
632.121	44464.000
632.249	44449.067
632.377	44378.096
632.505	44432.433
632.633	44661.846
632.762	44490.865
632.890	44507.587
633.018	44501.663
633.146	44540.433
633.274	44466.337
633.402	44533.413
633.530	44457.125
633.658	44529.981
633.787	44423.452
633.915	44556.750
634.043	44527.317
634.171	44591.125
634.299	44532.490
634.427	44517.240
634.555	44661.952
634.683	44538.096
634.812	44468.750
634.940	44340.317
635.068	44357.817
635.196	44343.317
635.324	44319.952
635.452	44280.308
635.580	44373.798
635.708	44208.702
635.837	44202.606
635.965	44097.038
636.093	43982.567
636.221	44017.462
636.349	43865.077
636.477	43882.981
636.605	43847.962
636.733	43770.596
636.862	43713.587
636.990	43664.019
637.118	43549.981
637.246	43465.981
637.374	43559.269
637.502	43311.442
637.630	43313.788
637.758	43221.721
637.887	43148.260
638.015	43248.327
638.143	43093.615
638.271	42987.413
638.399	43006.010
638.527	42890.240
638.655	42893.798
638.783	42727.500
638.912	42789.500
639.040	42693.404
639.168	42634.846
639.296	42615.865
639.424	42617.221
639.552	42532.952
639.680	42541.260
639.808	42475.817
639.937	42486.000
640.065	42488.356
640.193	42413.106
640.321	42474.692
640.449	42497.317
640.577	42433.413
640.705	42380.308
640.833	42322.615
640.962	42483.317
641.090	42315.019
641.218	42362.606
641.346	42424.317
641.474	42366.654
641.602	42408.240
641.730	42329.721
641.858	42291.692
641.987	42301.606
642.115	42504.750
642.243	42369.663
642.371	42511.779
642.499	42311.308
642.627	42433.923
642.755	42369.952
642.883	42407.981
643.012	42329.846
643.140	42420.365
643.268	42440.106
643.396	42432.125
643.524	42434.644
643.652	42490.933
643.780	42462.952
643.908	42505.558
644.037	42502.587
644.165	42485.529
644.293	42635.413
644.421	42411.875
644.549	42455.779
644.677	42507.337
644.805	42436.115
644.933	42309.971
645.062	42482.058
645.190	42581.288
645.318	42447.808
645.446	42426.606
645.574	42494.577
645.702	42398.452
645.830	42407.587
645.958	42300.702
646.087	42359.567
646.215	42266.394
646.343	42306.125
646.471	42450.067
646.599	42218.529
646.727	42220.510
646.855	42218.308
646.983	42156.577
647.112	42215.173
647.240	42070.413
647.368	42077.058
647.496	41977.337
647.624	41992.067
647.752	41993.337
647.880	41878.087
648.008	41869.423
648.137	41878.990
648.265	41883.288
648.393	41904.971
648.521	41697.500
648.649	41738.202
648.777	41611.433
648.905	41540.596
649.033	41536.096
649.162	41410.913
649.290	41271.481
649.418	41254.000
649.546	41313.712
649.674	41273.471
649.802	41060.212
649.930	41012.413
650.058	40977.135
650.187	40961.500
650.315	40890.356
650.443	40815.250
650.571	40596.029
650.699	40607.423
650.827	40527.192
650.955	40402.769
651.083	40456.827
651.212	40336.683
651.340	40275.452
651.468	40133.125
651.596	40007.337
651.724	40038.183
651.852	39920.471
651.980	39926.125
652.108	39686.519
652.237	39714.692
652.365	39558.548
652.493	39488.269
652.621	39432.462
652.749	39415.413
652.877	39351.837
653.005	39337.788
653.133	39202.000
653.262	39134.010
653.390	38976.519
653.518	39090.250
653.646	38911.173
653.774	38858.135
653.902	38923.327
654.030	38776.625
654.158	38638.308
654.287	38658.115
654.415	38502.990
654.543	38582.423
654.671	38468.375
654.799	38458.817
654.927	38306.279
655.055	38246.981
655.183	38158.481
655.312	38113.058
655.440	38062.673
655.568	37955.538
655.696	37966.683
655.824	37891.663
655.952	37792.865
656.080	37667.144
656.208	37591.702
656.337	37577.221
656.465	37658.365
656.593	37434.865
656.721	37451.923
656.849	37425.712
656.977	37165.231
657.105	37165.731
657.233	37143.913
657.362	37105.808
657.490	37029.087
657.618	36916.923
657.746	36841.490
657.874	36566.231
658.002	36519.856
658.130	36338.202
658.258	36309.596
658.387	36224.221
658.515	36153.442
658.643	36086.933
658.771	36076.087
658.899	35941.500
659.027	35914.558
659.155	35878.452
659.283	35721.740
659.412	35664.240
659.540	35626.202
659.668	35614.750
659.796	35639.913
659.924	35585.327
660.052	35630.183
660.180	35512.462
660.308	35474.894
660.437	35406.163
660.565	35221.327
660.693	35062.529
660.821	35096.462
660.949	34834.990
661.077	34934.692
661.205	35018.365
661.333	34796.635
661.462	34715.577
661.590	34713.298
661.718	34520.740
661.846	34520.750
661.974	34388.740
662.102	34307.221
662.230	34227.500
662.358	34127.885
662.487	34093.875
662.615	34081.952
662.743	33957.221
662.871	33922.163
662.999	33842.356
663.127	33759.433
663.255	33689.817
663.383	33753.683
663.512	33505.740
663.640	33532.375
663.768	33519.317
663.896	33352.923
664.024	33355.202
664.152	33307.673
664.280	33257.971
664.408	33076.346
664.537	33055.913
664.665	33041.375
664.793	33000.240
664.921	32957.240
665.049	32959.885
665.177	32825.548
665.305	32796.529
665.433	32713.087
665.562	32848.106
665.690	32673.798
665.818	32751.308
665.946	32505.740
666.074	32435.606
666.202	32368.548
666.330	32321.548
666.458	32527.721
666.587	32202.788
666.715	32193.327
666.843	32079.529
666.971	32013.231
667.099	32020.865
667.227	31973.087
667.355	31966.288
667.483	31842.971
667.612	31822.279
667.740	31709.106
667.868	31663.413
667.996	31605.596
668.124	31574.490
668.252	31602.462
668.380	31412.000
668.508	31417.798
668.637	31251.673
668.765	31251.779
668.893	31102.442
669.021	31089.760
669.149	31033.269
669.277	30882.663
669.405	31007.452
669.533	30905.740
669.662	30774.183
669.790	30676.452
669.918	30635.721
670.046	30668.019
670.174	30458.471
670.302	30395.000
670.430	30316.817
670.558	30277.721
670.687	30341.221
670.815	30086.548
670.943	30019.250
671.071	29914.769
671.199	29763.260
671.327	29750.625
671.455	29768.673
671.583	29653.481
671.712	29566.077
671.840	29524.635
671.968	29603.202
672.096	29448.433
672.224	29218.885
672.352	29135.923
672.480	28989.606
672.608	28996.981
672.737	28897.327
672.865	28826.663
672.993	28723.894
673.121	28561.106
673.249	28543.654
673.377	28403.952
673.505	28346.587
673.633	28372.500
673.762	28238.606
673.890	28125.183
674.018	28093.606
674.146	27963.183
674.274	27895.644
674.402	27871.096
674.530	27686.010
674.658	27579.654
674.787	27461.000
674.915	27550.038
675.043	27338.212
675.171	27254.327
675.299	27130.981
675.427	27019.577
675.555	26987.490
675.683	26867.856
675.812	26850.183
675.940	26683.712
676.068	26568.817
676.196	26559.760
676.324	26420.865
676.452	26370.673
676.580	26192.038
676.708	26146.385
676.837	26015.135
676.965	26065.298
677.093	26043.875
677.221	25791.462
677.349	25691.663
677.477	25702.894
677.605	25567.567
677.733	25476.904
677.862	25377.192
677.990	25400.240
678.118	25259.962
678.246	25114.923
678.374	25108.894
678.502	24965.750
678.630	24843.837
678.758	24811.519
678.887	24894.029
679.015	24623.587
679.143	24546.577
679.271	24462.817
679.399	24402.337
679.527	24310.413
679.655	24288.875
679.783	24176.183
679.912	24098.125
680.040	24214.308
680.168	23982.962
680.296	23899.558
680.424	23845.827
680.552	23732.856
680.680	23710.962
680.808	23562.288
680.937	23560.538
681.065	23502.548
681.193	23424.029
681.321	23261.712
681.449	23343.577
681.577	23236.865
681.705	23156.865
681.833	23104.481
681.962	22974.394
682.090	22931.596
682.218	22880.606
682.346	22815.519
682.474	22712.212
682.602	22708.385
682.730	22685.038
682.858	22553.942
682.987	22492.923
683.115	22474.846
683.243	22415.538
683.371	22350.365
683.499	22283.644
683.627	22241.625
683.755	22155.904
683.883	22140.779
684.012	22033.125
684.140	21952.981
684.268	21974.135
684.396	21947.894
684.524	21797.163
684.652	21811.567
684.780	21753.077
684.908	21652.875
685.037	21653.644
685.165	21555.048
685.293	21564.413
685.421	21469.885
685.549	21425.087
685.677	21338.519
685.805	21288.644
685.933	21226.096
686.062	21155.288
686.190	21062.346
686.318	21009.202
686.446	20957.019
686.574	20852.125
686.702	20892.231
686.830	20750.865
686.958	20799.740
687.087	20705.942
687.215	20651.221
687.343	20576.375
687.471	20649.519
687.599	20405.356
687.727	20379.231
687.855	20322.606
687.983	20229.548
688.112	20254.865
688.240	20122.279
688.368	20135.462
688.496	20054.019
688.624	19871.154
688.752	20024.048
688.880	19823.346
689.008	19752.067
689.137	19723.125
689.265	19613.115
689.393	19594.712
689.521	19519.587
689.649	19570.308
689.777	19438.625
689.905	19454.837
690.033	19296.962
690.162	19218.337
690.290	19274.115
690.418	19114.240
690.546	19084.298
690.674	19066.712
690.802	19022.087
690.930	18900.548
691.058	18845.144
691.187	18790.048
691.315	18680.654
691.443	18655.356
691.571	18655.462
691.699	18495.192
691.827	18426.423
691.955	18379.087
692.083	18350.577
692.212	18256.115
692.340	18240.010
692.468	18221.173
692.596	18162.135
692.724	18034.827
692.852	18053.673
692.980	17990.692
693.108	17971.269
693.237	17772.606
693.365	17724.096
693.493	17697.202
693.621	17640.933
693.749	17554.567
693.877	17529.846
694.005	17406.673
694.133	17289.279
694.262	17368.346
694.390	17150.135
694.518	17152.048
694.646	17090.375
694.774	17012.990
694.902	16953.952
695.030	16913.356
695.158	16818.721
695.287	16745.442
695.415	16731.452
695.543	16651.144
695.671	16540.010
695.799	16626.846
695.927	16450.346
696.055	16394.962
696.183	16277.096
696.312	16411.462
696.440	16234.154
696.568	16249.019
696.696	16035.394
696.824	15960.452
696.952	15928.058
697.080	15885.962
697.208	15785.654
697.337	15712.519
697.465	15694.269
697.593	15583.625
697.721	15684.740
697.849	15493.769
697.977	15478.240
698.105	15474.019
698.233	15369.952
698.362	15260.269
698.490	15335.990
698.618	15159.029
698.746	15126.740
698.874	15099.163
699.002	15010.865
699.130	15007.087
699.258	14866.587
699.387	14816.788
699.515	14822.087
699.643	14795.760
699.771	14768.433
699.899	14633.202
700.027	14526.990
700.155	14534.596
700.283	14416.654
700.412	14393.856
700.540	14381.250
700.668	14390.692
700.796	14188.538
700.924	14187.269
701.052	14178.192
701.180	14122.106
701.308	14004.010
701.437	13940.740
701.565	13922.452
701.693	13854.010
701.821	14004.606
701.949	13730.779
702.077	13682.375
702.205	13742.365
702.333	13596.663
702.462	13502.212
702.590	13542.760
702.718	13387.279
702.846	13526.433
702.974	13276.058
703.102	13239.365
703.230	13213.750
703.358	13103.962
703.487	13083.635
703.615	13056.644
703.743	12966.577
703.871	12931.202
703.999	12876.346
704.127	12766.135
704.255	12729.856
704.383	12679.558
704.512	12724.077
704.640	12623.096
704.768	12640.529
704.896	12480.288
705.024	12363.740
705.152	12354.019
705.280	12338.702
705.408	12242.654
705.537	12184.587
705.665	12142.788
705.793	12088.260
705.921	12038.952
706.049	11953.750
706.177	11946.452
706.305	11859.760
706.433	11825.462
706.562	11787.019
706.690	11779.587
706.818	11685.933
706.946	11610.510
707.074	11531.288
707.202	11485.000
707.330	11447.337
707.458	11390.346
707.587	11337.702
707.715	11316.654
707.843	11290.990
707.971	11283.769
708.099	11130.760
708.227	11119.942
708.355	11053.279
708.483	11002.260
708.612	11001.490
708.740	10901.654
708.868	10840.490
708.996	10894.385
709.124	10813.423
709.252	10749.529
709.380	10742.058
709.508	10649.250
709.637	10660.587
709.765	10598.087
709.893	10591.567
710.021	10474.692
710.149	10534.163
710.277	10360.644
710.405	10388.375
710.533	10324.740
710.662	10289.769
710.790	10392.990
710.918	10195.154
711.046	10193.375
711.174	10112.404
711.302	10144.115
711.430	10076.933
711.558	10074.769
711.687	9987.894
711.815	9924.279
711.943	9871.846
712.071	9853.038
712.199	9852.817
712.327	9891.058
712.455	9709.317
712.583	9896.875
712.712	9690.769
712.840	9697.471
712.968	9618.298
713.096	9578.654
713.224	9498.827
713.352	9506.067
713.480	9405.375
713.608	9394.942
713.737	9335.952
713.865	9385.788
713.993	9323.163
714.121	9304.971
714.249	9218.058
714.377	9176.769
714.505	9149.952
714.633	9127.750
714.762	9072.577
714.890	9026.567
715.018	8998.308
715.146	9047.288
715.274	8912.875
715.402	8907.615
715.530	8865.894
715.658	8891.567
715.787	8801.010
715.915	8865.135
716.043	8738.798
716.171	8836.433
716.299	8648.087
716.427	8690.356
716.555	8609.442
716.683	8584.029
716.812	8524.356
716.940	8483.558
717.068	8428.356
717.196	8614.558
717.324	8428.125
717.452	8396.019
717.580	8388.308
717.708	8294.731
717.837	8283.760
717.965	8288.106
718.093	8233.596
718.221	8234.096
718.349	8252.798
718.477	8126.471
718.605	8223.183
718.733	8073.615
718.862	8098.894
718.990	7979.471
719.118	8028.327
719.246	7933.808
719.374	7886.663
719.502	7911.654
719.630	7999.635
719.758	7814.942
719.887	7763.173
720.015	7766.904
720.143	7798.587
720.271	7652.981
720.399	7684.904
720.527	7613.731
720.655	7677.952
720.783	7526.298
720.912	7485.365
721.040	7491.962
721.168	7491.385
721.296	7398.183
721.424	7367.683
721.552	7334.875
721.680	7375.962
721.808	7316.606
721.937	7286.846
722.065	7277.144
722.193	7201.356
722.321	7177.933
722.449	7172.096
722.577	7097.346
722.705	7081.394
722.833	7047.058
722.962	7057.817
723.090	7001.433
723.218	6959.115
723.346	6975.173
723.474	6878.798
723.602	6838.183
723.730	6826.837
723.858	6798.202
723.987	6776.087
724.115	6724.769
724.243	6744.481
724.371	6670.577
724.499	6635.673
724.627	6616.327
724.755	6613.721
724.883	6652.087
725.012	6723.154
725.140	6550.587
725.268	6457.712
725.396	6528.452
725.524	6542.500
725.652	6396.692
725.780	6491.788
725.908	6330.000
726.037	6307.769
726.165	6306.798
726.293	6224.817
726.421	6249.048
726.549	6230.885
726.677	6179.577
726.805	6104.202
726.933	6137.038
727.062	6074.654
727.190	6047.606
727.318	6003.308
727.446	5991.260
727.574	5962.010
727.702	5930.760
727.830	5969.971
727.958	5926.990
728.087	5951.510
728.215	5999.962
728.343	5839.115
728.471	5827.779
728.599	5947.721
728.727	5745.952
728.855	5742.894
728.983	5706.221
729.112	5726.250
729.240	5669.385
729.368	5622.635
729.496	5639.000
729.624	5617.779
729.752	5568.144
729.880	5525.452
730.008	5519.250
730.137	5520.404
730.265	5473.827
730.393	5636.250
730.521	5574.538
730.649	5395.644
730.777	5355.865
730.905	5350.240
731.033	5310.163
731.162	5425.567
731.290	5369.923
731.418	5266.327
731.546	5245.817
731.674	5241.115
731.802	5166.606
731.930	5232.144
732.058	5301.288
732.187	5152.365
732.315	5155.538
732.443	5251.837
732.571	5129.163
732.699	5097.173
732.827	5109.202
732.955	5032.606
733.083	5010.529
733.212	5023.894
733.340	4948.394
733.468	4932.673
733.596	4943.500
733.724	4919.750
733.852	4938.702
733.980	4890.327
734.108	5025.846
734.237	4872.029
734.365	4827.048
734.493	4829.712
734.621	4789.144
734.749	4789.077
734.877	4784.865
735.005	4759.269
735.133	4720.212
735.262	4821.933
735.390	4670.808
735.518	4672.490
735.646	4722.663
735.774	4698.952
735.902	4709.625
736.030	4598.837
736.158	4583.058
736.287	4617.154
736.415	4539.125
736.543	4544.000
736.671	4492.760
736.799	4540.077
736.927	4477.394
737.055	4581.212
737.183	4429.154
737.312	4427.452
737.440	4409.135
737.568	4494.173
737.696	4446.904
737.824	4383.856
737.952	4618.154
738.080	4299.673
738.208	4360.029
738.337	4303.587
738.465	4309.394
738.593	4292.298
738.721	4259.990
738.849	4292.779
738.977	4210.740
739.105	4218.644
739.233	4199.731
739.362	4162.163
739.490	4148.635
739.618	4185.077
739.746	4168.096
739.874	4104.510
740.002	4131.404
740.130	4107.510
740.258	4045.317
740.387	4103.260
740.515	4048.856
740.643	4053.788
740.771	4080.894
740.899	3969.346
741.027	3940.548
741.155	3916.587
741.283	3892.048
741.412	4015.865
741.540	3950.808
741.668	3918.760
741.796	3969.606
741.924	3836.240
742.052	4027.490
742.180	3835.808
742.308	3794.481
742.437	3834.519
742.565	3793.510
742.693	3885.202
742.821	3749.875
742.949	3727.538
743.077	3763.452
743.205	3668.356
743.333	3697.712
743.462	3698.913
743.590	3648.740
743.718	3682.183
743.846	3626.202
743.974	3676.260
744.102	3579.692
744.230	3606.692
744.358	3579.337
744.487	3569.885
744.615	3545.615
744.743	3530.750
744.871	3519.923
744.999	3558.490
745.127	3472.433
745.255	3462.019
745.383	3492.154
745.512	3430.346
745.640	3412.808
745.768	3407.519
745.896	3476.894
746.024	3446.827
746.152	3382.519
746.280	3448.529
746.408	3369.000
746.537	3416.510
746.665	3324.865
746.793	3312.625
746.921	3297.327
747.049	3329.077
747.177	3270.683
747.305	3463.058
747.433	3255.038
747.562	3208.471
747.690	3260.481
747.818	3296.298
747.946	3198.808
748.074	3190.346
748.202	3217.673
748.330	3170.317
748.458	3146.375
748.587	3108.058
748.715	3194.654
748.843	3095.375
748.971	3106.462
749.099	3091.798
749.227	3101.135
749.355	3102.365
749.483	3030.827
749.612	3109.913
749.740	3060.327
749.868	3032.413
749.996	3074.635
750.124	3076.615
750.252	3026.538
750.380	3018.596
750.508	2958.385
750.637	2937.865
750.765	3107.750
750.893	2915.702
751.021	2881.385
751.149	2949.135
751.277	2915.740
751.405	2895.721
751.533	2882.500
751.662	2853.817
751.790	3023.635
751.918	2814.173
752.046	2825.183
752.174	2855.712
752.302	2808.635
752.430	2808.058
752.558	2820.904
752.687	2771.837
752.815	2833.260
752.943	2755.010
753.071	2739.558
753.199	2753.279
753.327	2735.673
753.455	2710.346
753.583	2779.375
753.712	2700.375
753.840	2699.952
753.968	2700.135
754.096	2678.413
754.224	2700.423
754.352	2686.010
754.480	2681.529
754.608	2659.644
754.737	2648.288
754.865	2627.163
754.993	2666.087
755.121	2653.163
755.249	2650.000
755.377	2545.990
755.505	2611.144
755.633	2621.010
755.762	2542.548
755.890	2555.077
756.018	2520.413
756.146	2513.519
756.274	2514.221
756.402	2505.683
756.530	2484.625
756.658	2495.087
756.787	2463.529
756.915	2453.731
757.043	2441.154
757.171	2444.529
757.299	2480.240
757.427	2408.337
757.555	2405.856
757.683	2391.433
757.812	2399.692
757.940	2370.144
758.068	2364.942
758.196	2369.510
758.324	2364.192
758.452	2337.356
758.580	2354.058
758.708	2324.760
758.837	2358.452
758.965	2333.096
759.093	2337.702
759.221	2280.952
759.349	2258.394
759.477	2274.596
759.605	2255.683
759.733	2274.337
759.862	2216.144
759.990	2247.731
760.118	2219.933
760.246	2239.173
760.374	2217.481
760.502	2206.519
760.630	2197.365
760.758	2183.394
760.887	2180.433
761.015	2165.058
761.143	2178.413
761.271	2148.250
761.399	2151.856
761.527	2143.192
761.655	2141.538
761.783	2107.327
761.912	2119.692
762.040	2102.212
762.168	2061.260
762.296	2077.087
762.424	2067.750
762.552	2079.971
762.680	2038.567
762.808	2063.337
762.937	2046.019
763.065	2017.548
763.193	2010.058
763.321	2008.279
763.449	1990.173
763.577	1975.019
763.705	1994.808
763.833	1970.462
763.962	1957.875
764.090	1960.712
764.218	1937.971
764.346	1943.087
764.474	1939.894
764.602	1915.519
764.730	1912.971
764.858	1907.567
764.987	1899.269
765.115	1890.192
765.243	1877.308
765.371	1873.163
765.499	1860.827
765.627	1874.567
765.755	1853.750
765.883	1840.692
766.012	1828.904
766.140	1826.942
766.268	1818.462
766.396	1818.519
766.524	1815.606
766.652	1797.038
766.780	1789.692
766.908	1796.644
767.037	1798.721
767.165	1776.144
767.293	1768.087
767.421	1772.125
767.549	1748.837
767.677	1776.327
767.805	1734.183
767.933	1748.288
768.062	1727.596
768.190	1721.058
768.318	1727.952
768.446	1710.077
768.574	1699.808
768.702	1710.125
768.830	1703.481
768.958	1698.481
769.087	1690.692
769.215	1673.990
769.343	1677.087
769.471	1688.173
769.599	1665.365
769.727	1665.740
769.855	1641.519
769.983	1686.971
770.112	1645.981
770.240	1637.144
770.368	1626.721
770.496	1623.894
770.624	1623.058
770.752	1607.692
770.880	1623.673
771.008	1582.673
771.137	1591.519
771.265	1587.144
771.393	1551.365
771.521	1578.481
771.649	1575.981
771.777	1602.029
771.905	1626.442
772.033	1583.962
772.162	1547.663
772.290	1558.346
772.418	1553.567
772.546	1545.394
772.674	1538.375
772.802	1526.462
772.930	1531.519
773.058	1521.875
773.187	1518.846
773.315	1525.221
773.443	1506.596
773.571	1512.279
773.699	1509.673
773.827	1503.135
773.955	1522.317
774.083	1492.846
774.212	1488.231
774.340	1477.904
774.468	1475.288
774.596	1469.337
774.724	1476.010
774.852	1466.837
774.980	1459.240
775.108	1461.702
775.237	1441.077
775.365	1441.596
775.493	1443.981
775.621	1435.385
775.749	1432.413
775.877	1448.731
776.005	1430.067
776.133	1428.596
776.262	1401.538
776.390	1415.760
776.518	1398.481
776.646	1403.317
776.774	1405.077
776.902	1385.933
777.030	1369.952
777.158	1382.481
777.287	1399.587
777.415	1369.625
777.543	1383.260
777.671	1373.077
777.799	1371.615
777.927	1365.173
778.055	1378.817
778.183	1360.904
778.312	1352.163
778.440	1354.990
778.568	1364.106
778.696	1373.894
778.824	1361.577
778.952	1356.904
779.080	1342.788
779.208	1331.654
779.337	1340.038
779.465	1334.077
779.593	1331.058
779.721	1317.481
779.849	1313.096
779.977	1323.077
780.105	1305.971
780.233	1305.519
780.362	1289.625
780.490	1285.279
780.618	1304.548
780.746	1287.442
780.874	1286.087
781.002	1287.769
781.130	1273.981
781.258	1272.913
781.387	1275.058
781.515	1275.125
781.643	1256.144
781.771	1260.952
781.899	1272.212
782.027	1243.779
782.155	1255.019
782.283	1247.269
782.412	1252.865
782.540	1251.413
782.668	1239.923
782.796	1236.981
782.924	1235.212
783.052	1239.404
783.180	1228.740
783.308	1233.712
783.437	1216.779
783.565	1230.048
783.693	1224.654
783.821	1222.769
783.949	1211.923
784.077	1209.990
784.205	1215.788
784.333	1206.087
784.462	1200.087
784.590	1189.856
784.718	1189.087
784.846	1195.990
784.974	1201.990
785.102	1179.894
785.230	1183.962
785.358	1172.365
785.487	1175.029
785.615	1168.731
785.743	1155.212
785.871	1176.635
785.999	1160.644
786.127	1172.308
786.255	1152.442
786.383	1152.673
786.512	1159.019
786.640	1150.413
786.768	1132.538
786.896	1147.221
787.024	1131.558
787.152	1127.288
787.280	1153.567
787.408	1118.904
787.537	1137.288
787.665	1143.481
787.793	1128.308
787.921	1114.452
788.049	1113.394
788.177	1106.740
788.305	1121.471
788.433	1107.279
788.562	1106.904
788.690	1100.490
788.818	1102.885
788.946	1093.298
789.074	1088.279
789.202	1083.683
789.330	1077.856
789.458	1086.788
789.587	1078.423
789.715	1087.298
789.843	1081.490
789.971	1071.615
790.099	1066.500
790.227	1057.923
790.355	1061.663
790.483	1058.683
790.612	1051.606
790.740	1059.692
790.868	1050.875
790.996	1062.288
791.124	1065.000
791.252	1047.163
791.380	1034.163
791.508	1043.673
791.637	1034.125
791.765	1028.394
791.893	1028.990
792.021	1028.010
792.149	1020.933
792.277	1028.692
792.405	1011.615
792.533	1010.423
792.662	1011.635
792.790	1005.269
792.918	1028.115
793.046	996.692
793.174	1003.625
793.302	991.933
793.430	1000.683
793.558	1007.712
793.687	1002.010
793.815	981.173
793.943	992.567
794.071	980.923
794.199	979.481
794.327	972.433
794.455	987.423
794.583	977.548
794.712	964.375
794.840	959.904
794.968	966.942
795.096	972.596
795.224	949.135
795.352	982.644
795.480	939.337
795.608	943.962
795.737	931.923
795.865	938.231
795.993	935.913
796.121	926.317
796.249	935.125
796.377	929.529
796.505	923.548
796.633	933.029
796.762	912.587
796.890	913.500
797.018	918.202
797.146	918.317
797.274	917.125
797.402	907.856
797.530	892.779
797.658	900.346
797.787	918.385
797.915	896.077
798.043	888.740
798.171	894.827
798.299	881.000
798.427	882.529
798.555	894.692
798.683	880.692
798.812	898.558
798.940	916.442
799.068	906.038
799.196	876.683
799.324	871.192
799.452	846.990
799.580	859.356
799.708	856.856
799.837	860.615
799.965	838.288
800.093	843.519
800.221	838.154
800.349	842.606
800.477	827.827
800.605	833.490
800.733	843.808
800.862	833.375
800.990	826.596
801.118	823.269
801.246	828.404
801.374	829.317
801.502	814.577
801.630	812.154
801.758	816.481
801.887	803.635
802.015	819.394
802.143	802.192
802.271	795.673
802.399	796.337
802.527	796.702
802.655	797.750
802.783	787.644
802.912	794.558
803.040	786.644
803.168	782.298
803.296	783.692
803.424	771.913
803.552	783.490
803.680	779.125
803.808	780.587
803.937	768.846
804.065	769.760
804.193	768.865
804.321	785.702
804.449	775.721
804.577	759.385
804.705	782.096
804.833	750.404
804.962	756.558
805.090	759.538
805.218	744.019
805.346	733.856
805.474	755.433
805.602	744.356
805.730	749.750
805.858	731.173
805.987	733.952
806.115	723.769
806.243	729.558
806.371	731.423
806.499	727.990
806.627	722.837
806.755	732.038
806.883	722.865
807.012	718.990
807.140	719.702
807.268	706.269
807.396	711.240
807.524	717.250
807.652	716.212
807.780	705.971
807.908	703.173
808.037	714.981
808.165	706.904
808.293	688.702
808.421	690.692
808.549	696.327
808.677	695.433
808.805	698.625
808.933	689.721
809.062	690.558
809.190	699.423
809.318	688.077
809.446	681.269
809.574	687.692
809.702	669.635
809.830	672.183
809.958	681.856
810.087	681.490
810.215	672.404
810.343	672.490
810.471	675.327
810.599	664.663
810.727	666.740
810.855	649.837
810.983	658.288
811.112	657.865
811.240	656.462
811.368	658.077
811.496	660.577
811.624	650.067
811.752	651.837
811.880	662.260
812.008	649.067
812.137	658.913
812.265	642.288
812.393	643.538
812.521	635.760
812.649	635.087
812.777	630.990
812.905	652.067
813.033	636.760
813.162	629.519
813.290	624.837
813.418	629.202
813.546	626.404
813.674	619.356
813.802	621.740
813.930	614.625
814.058	615.317
814.187	615.462
814.315	617.654
814.443	603.885
814.571	612.577
814.699	600.798
814.827	608.038
814.955	615.288
815.083	598.596
815.212	606.077
815.340	595.577
815.468	604.260
815.596	593.385
815.724	594.808
815.852	593.981
815.980	593.221
816.108	589.317
816.237	593.779
816.365	594.058
816.493	584.433
816.621	592.913
816.749	578.846
816.877	643.500
817.005	591.115
817.133	580.144
817.262	573.500
817.390	567.144
817.518	584.788
817.646	560.221
817.774	563.260
817.902	558.760
818.030	562.654
818.158	566.712
818.287	556.827
818.415	556.442
818.543	550.827
818.671	560.481
818.799	547.308
818.927	547.769
819.055	574.510
819.183	554.000
819.312	568.683
819.440	543.788
819.568	541.942
819.696	543.933
819.824	542.433
819.952	541.548
820.080	537.885
820.208	535.962
820.337	534.346
820.465	537.308
820.593	536.308
820.721	532.385
820.849	523.779
820.977	525.788
821.105	526.779
821.233	518.615
821.362	520.529
821.490	523.712
821.618	521.933
821.746	528.452
821.874	515.769
822.002	509.231
822.130	509.404
822.258	522.904
822.387	507.865
822.515	513.962
822.643	510.000
822.771	509.154
822.899	509.942
823.027	494.596
823.155	502.644
823.283	514.875
823.412	511.269
823.540	501.923
823.668	491.404
823.796	494.375
823.924	488.663
824.052	490.548
824.180	501.692
824.308	491.846
824.437	498.875
824.565	494.269
824.693	478.875
824.821	479.308
824.949	486.510
825.077	486.596
825.205	471.135
825.333	484.567
825.462	480.519
825.590	477.442
825.718	467.577
825.846	473.115
825.974	472.317
826.102	464.442
826.230	472.683
826.358	472.904
826.487	466.606
826.615	461.702
826.743	458.038
826.871	466.827
826.999	460.904
827.127	458.808
827.255	463.058
827.383	459.154
827.512	454.096
827.640	461.721
827.768	469.663
827.896	454.269
828.024	453.644
828.152	446.817
828.280	455.106
828.408	442.721
828.537	448.298
828.665	442.596
828.793	447.317
828.921	443.250
829.049	443.288
829.177	443.692
829.305	436.471
829.433	438.788
829.562	429.548
829.690	436.394
829.818	442.019
829.946	434.404
830.074	434.683
830.202	427.260
830.330	432.115
830.458	422.567
830.587	435.115
830.715	421.837
830.843	421.327
830.971	430.798
831.099	431.500
831.227	451.808
831.355	420.663
831.483	418.971
831.612	415.510
831.740	416.529
831.868	411.788
831.996	423.904
832.124	420.500
832.252	422.635
832.380	408.288
832.508	411.933
832.637	407.721
832.765	412.904
832.893	408.269
833.021	407.519
833.149	398.231
833.277	401.308
833.405	404.587
833.533	394.087
833.662	406.375
833.790	392.519
833.918	400.163
834.046	399.423
834.174	391.625
834.302	404.673
834.430	391.615
834.558	391.212
834.687	394.875
834.815	399.163
834.943	393.635
835.071	394.462
835.199	388.885
835.327	385.308
835.455	395.817
835.583	387.048
835.712	386.625
835.840	389.538
835.968	384.990
836.096	390.962
836.224	380.779
836.352	384.635
836.480	375.750
836.608	372.413
836.737	383.125
836.865	371.990
836.993	381.087
837.121	382.702
837.249	376.760
837.377	369.462
837.505	364.721
837.633	374.212
837.762	376.942
837.890	372.019
838.018	367.712
838.146	366.337
838.274	364.337
838.402	366.279
838.530	377.981
838.658	366.865
838.787	378.385
838.915	360.481
839.043	373.442
839.171	358.048
839.299	363.587
839.427	382.731
839.555	364.163
839.683	358.712
839.812	362.856
839.940	353.904
840.068	356.154
840.196	379.202
840.324	374.769
840.452	359.760
840.580	349.096
840.708	343.375
840.837	350.769
840.965	349.606
841.093	343.269
841.221	348.346
841.349	346.471
841.477	336.115
841.605	341.971
841.733	340.077
841.862	352.288
841.990	348.990
842.118	337.337
842.246	341.087
842.374	332.827
842.502	351.471
842.630	341.327
842.758	336.587
842.887	345.808
843.015	353.913
843.143	337.692
843.271	334.625
843.399	332.702
843.527	337.192
843.655	330.240
843.783	334.337
843.912	325.192
844.040	323.952
844.168	331.615
844.296	339.750
844.424	335.577
844.552	333.087
844.680	327.625
844.808	322.971
844.937	325.721
845.065	322.260
845.193	336.096
845.321	327.673
845.449	332.625
845.577	324.500
845.705	321.269
845.833	319.971
845.962	329.163
846.090	320.490
846.218	335.875
846.346	324.981
846.474	322.798
846.602	315.750
846.730	322.308
846.858	312.885
846.987	313.260
847.115	325.154
847.243	325.625
847.371	307.423
847.499	311.712
847.627	314.865
847.755	308.548
847.883	319.288
848.012	319.817
848.140	303.452
848.268	308.846
848.396	313.269
848.524	317.077
848.652	307.087
848.780	303.712
848.908	306.721
849.037	307.644
849.165	305.404
849.293	309.654
849.421	306.087
849.549	303.798
849.677	301.240
849.805	310.413
849.933	298.558
850.062	308.404
850.190	299.865
850.318	299.385
850.446	299.038
850.574	301.231
850.702	299.865
850.830	291.740
850.958	298.144
851.087	303.885
851.215	291.346
851.343	293.067
851.471	294.625
851.599	302.923
851.727	305.308
851.855	293.673
851.983	300.760
852.112	288.875
852.240	298.654
852.368	301.413
852.496	288.913
852.624	290.269
852.752	296.615
852.880	290.192
853.008	290.346
853.137	290.712
853.265	288.990
853.393	289.490
853.521	282.394
853.649	293.702
853.777	285.192
853.905	281.808
854.033	279.567
854.162	280.481
854.290	281.202
854.418	294.740
854.546	307.981
854.674	301.250
854.802	283.923
854.930	279.865
855.058	285.375
855.187	274.837
855.315	306.346
855.443	279.404
855.571	279.654
855.699	282.981
855.827	271.038
855.955	275.471
856.083	278.875
856.212	274.760
856.340	284.981
856.468	276.433
856.596	282.125
856.724	277.404
856.852	290.029
856.980	272.702
857.108	265.721
857.237	265.644
857.365	282.019
857.493	274.000
857.621	268.615
857.749	271.731
857.877	269.644
858.005	266.510
858.133	268.663
858.262	263.019
858.390	265.865
858.518	257.423
858.646	272.952
858.774	258.346
858.902	258.462
859.030	271.962
859.158	270.058
859.287	263.173
859.415	271.038
859.543	264.010
859.671	273.202
859.799	272.673
859.927	260.163
860.055	253.798
860.183	255.375
860.312	258.038
860.440	261.990
860.568	253.029
860.696	268.298
860.824	268.567
860.952	255.337
861.080	263.125
861.208	259.692
861.337	259.548
861.465	268.817
861.593	256.981
861.721	263.288
861.849	261.038
861.977	257.404
862.105	258.644
862.233	253.837
862.362	254.750
862.490	254.317
862.618	254.231
862.746	256.538
862.874	260.029
863.002	257.250
863.130	256.067
863.258	260.356
863.387	253.365
863.515	255.481
863.643	260.481
863.771	249.163
863.899	257.048
864.027	257.500
864.155	279.702
864.283	248.106
864.412	250.356
864.540	252.846
864.668	246.096
864.796	250.135
864.924	244.625
865.052	244.452
865.180	262.135
865.308	247.462
865.437	253.385
865.565	246.933
865.693	245.067
865.821	245.279
865.949	263.327
866.077	249.212
866.205	250.087
866.333	248.413
866.462	234.452
866.590	249.394
866.718	244.000
866.846	243.615
866.974	244.221
867.102	239.279
867.230	253.202
867.358	240.625
867.487	250.385
867.615	253.606
867.743	239.490
867.871	251.933
867.999	245.433
868.127	254.625
868.255	254.798
868.383	233.000
868.512	242.750
868.640	242.490
868.768	238.423
868.896	249.846
869.024	238.202
869.152	237.221
869.280	234.663
869.408	238.577
869.537	235.067
869.665	231.365
869.793	236.481
869.921	241.683
870.049	230.760
870.177	236.221
870.305	231.577
870.433	235.452
870.562	241.279
870.690	233.827
870.818	240.692
870.946	234.471
871.074	231.125
871.202	233.683
871.330	228.163
871.458	236.029
871.587	234.731
871.715	234.673
871.843	237.308
871.971	241.865
872.099	229.827
872.227	231.317
872.355	231.548
872.483	229.471
872.612	234.404
872.740	233.712
872.868	231.731
872.996	235.337
873.124	238.808
873.252	229.913
873.380	223.135
873.508	239.673
873.637	234.740
873.765	227.740
873.893	230.115
874.021	228.750
874.149	229.683
874.277	229.885
874.405	237.990
874.533	238.163
874.662	225.144
874.790	232.837
874.918	222.981
875.046	234.269
875.174	227.865
875.302	227.327
875.430	224.615
875.558	233.375
875.687	235.288
875.815	227.558
875.943	232.212
876.071	231.308
876.199	231.317
876.327	228.298
876.455	228.212
876.583	222.942
876.712	229.721
876.840	224.875
876.968	228.346
877.096	226.000
877.224	223.692
877.352	220.308
877.480	226.548
877.608	236.788
877.737	228.990
877.865	221.625
877.993	229.154
878.121	231.692
878.249	224.087
878.377	222.096
878.505	228.029
878.633	228.385
878.762	223.058
878.890	223.231
879.018	227.087
879.146	221.683
879.274	245.615
879.402	225.788
879.530	223.837
879.658	222.529
879.787	224.135
879.915	220.394
880.043	220.529
880.171	256.490
880.299	227.837
880.427	225.519
880.555	219.154
880.683	228.000
880.812	222.663
880.940	220.490
881.068	229.529
881.196	220.250
881.324	219.337
881.452	217.942
881.580	226.115
881.708	226.692
881.837	227.558
881.965	223.644
882.093	216.317
882.221	216.654
882.349	216.202
882.477	216.875
882.605	222.942
882.733	225.029
882.862	215.692
882.990	229.702
883.118	226.308
883.246	228.808
883.374	221.413
883.502	225.760
883.630	220.702
883.758	218.029
883.887	223.192
884.015	224.077
884.143	221.298
884.271	215.625
884.399	214.375
884.527	220.577
884.655	215.404
884.783	220.644
884.912	238.827
885.040	224.913
885.168	217.000
885.296	228.346
885.424	218.183
885.552	223.625
885.680	230.635
885.808	221.740
885.937	229.260
886.065	227.308
886.193	218.904
886.321	219.606
886.449	213.702
886.577	215.413
886.705	227.644
886.833	208.606
886.962	221.769
887.090	216.038
887.218	216.519
887.346	215.087
887.474	216.327
887.602	218.163
887.730	212.712
887.858	213.567
887.987	212.750
888.115	218.663
888.243	214.135
888.371	227.038
888.499	213.625
888.627	217.644
888.755	220.865
888.883	213.413
889.012	217.692
889.140	212.413
889.268	217.029
889.396	204.904
889.524	222.308
889.652	210.125
889.780	214.375
889.908	214.000
890.037	220.913
890.165	211.087
890.293	213.269
890.421	216.317
890.549	207.192
890.677	208.058
890.805	214.337
890.933	209.327
891.062	213.798
891.190	214.798
891.318	209.462
891.446	213.115
891.574	202.856
891.702	211.538
891.830	213.702
891.958	217.663
892.087	211.356
892.215	212.125
892.343	215.779
892.471	217.288
892.599	205.913
892.727	216.490
892.855	226.596
892.983	204.038
893.112	206.529
893.240	219.115
893.368	205.731
893.496	218.317
893.624	209.904
893.752	234.173
893.880	217.029
894.008	209.981
894.137	205.538
894.265	216.019
894.393	208.721
894.521	216.029
894.649	207.183
894.777	200.673
894.905	245.981
895.033	203.904
895.162	208.904
895.290	214.038
895.418	210.827
895.546	239.721
895.674	210.856
895.802	254.548
895.930	212.663
896.058	204.510
896.187	212.413
896.315	204.885
896.443	215.894
896.571	231.346
896.699	204.615
896.827	209.654
896.955	205.317
897.083	210.077
897.212	203.365
897.340	203.221
897.468	204.606
897.596	204.423
897.724	202.625
897.852	200.577
897.980	198.923
898.108	212.635
898.237	203.808
898.365	203.212
898.493	210.212
898.621	202.394
898.749	205.442
898.877	208.837
899.005	204.327
899.133	205.317
899.262	218.952
899.390	199.442
899.518	204.279
899.646	199.077
899.774	195.644
899.902	198.106
900.030	209.433
900.158	202.375
900.287	201.731
900.415	196.827
900.543	205.798
900.671	213.106
900.799	199.721
900.927	197.058
901.055	212.567
901.183	206.962
901.312	209.558
901.440	198.135
901.568	200.442
901.696	194.875
901.824	198.962
901.952	197.375
902.080	203.875
902.208	199.798
902.337	207.750
902.465	196.894
902.593	213.635
902.721	219.077
902.849	216.673
902.977	198.740
903.105	197.423
903.233	203.144
903.362	195.837
903.490	206.606
903.618	198.731
903.746	194.058
903.874	205.519
904.002	197.692
904.130	211.260
904.258	191.192
904.387	203.029
904.515	193.010
904.643	199.058
904.771	192.625
904.899	196.212
905.027	197.981
905.155	199.413
905.283	194.067
905.412	210.606
905.540	194.644
905.668	195.904
905.796	195.692
905.924	192.365
906.052	199.250
906.180	198.837
906.308	194.490
906.437	193.635
906.565	198.904
906.693	203.471
906.821	193.385
906.949	197.144
907.077	189.808
907.205	200.548
907.333	190.250
907.462	191.692
907.590	196.519
907.718	192.423
907.846	199.913
907.974	193.269
908.102	194.567
908.230	198.125
908.358	194.212
908.487	188.260
908.615	203.769
908.743	203.067
908.871	188.856
908.999	192.010
909.127	191.846
909.255	203.548
909.383	189.221
909.512	191.183
909.640	203.875
909.768	193.067
909.896	198.827
910.024	201.135
910.152	201.279
910.280	197.865
910.408	188.837
910.537	189.183
910.665	199.644
910.793	197.356
910.921	198.837
911.049	202.933
911.177	198.692
911.305	191.019
911.433	218.692
911.562	195.808
911.690	196.413
911.818	196.567
911.946	194.587
912.074	200.288
912.202	193.500
912.330	211.125
912.458	189.135
912.587	194.538
912.715	199.837
912.843	208.269
912.971	197.952
913.099	217.683
913.227	206.865
913.355	204.837
913.483	209.365
913.612	207.010
913.740	225.192
913.868	203.385
