70_80_90_Pol_at_750.00nm_cut_at_1179.00Y_01.dat
03.07.2023
10:53:49
cut middle at Y: 1179.00
top cursor: 1231 down cursor: 1127 mean of: 104 lines , 2560 datapoints
wavelength(nm)	intensity[arb. units]
585.996	19644.375
586.124	19332.221
586.252	19319.394
586.380	19299.692
586.508	19417.846
586.637	19485.327
586.765	19450.077
586.893	19474.010
587.021	19568.423
587.149	19604.019
587.277	19589.990
587.405	19605.779
587.533	19653.154
587.662	19689.442
587.790	19648.837
587.918	19607.692
588.046	19640.404
588.174	19666.481
588.302	19718.788
588.430	19711.606
588.558	19691.462
588.687	19703.913
588.815	19746.663
588.943	19694.173
589.071	19714.808
589.199	19755.673
589.327	19703.673
589.455	19775.192
589.583	19777.106
589.712	19775.240
589.840	19703.481
589.968	19720.308
590.096	19822.125
590.224	19749.519
590.352	19855.625
590.480	19791.500
590.608	19765.298
590.737	19812.923
590.865	19852.481
590.993	19755.712
591.121	19729.981
591.249	19811.865
591.377	19780.981
591.505	19852.683
591.633	19788.885
591.762	19785.788
591.890	19766.577
592.018	19907.904
592.146	19829.010
592.274	19796.308
592.402	19779.856
592.530	20018.173
592.658	19887.519
592.787	19911.837
592.915	19955.154
593.043	19878.596
593.171	19991.856
593.299	19983.933
593.427	19970.923
593.555	20016.654
593.683	20030.962
593.812	20092.904
593.940	20114.712
594.068	20112.894
594.196	20084.163
594.324	20197.202
594.452	20352.250
594.580	20321.048
594.708	20368.144
594.837	20355.962
594.965	20430.990
595.093	20435.904
595.221	20557.798
595.349	20531.442
595.477	20548.721
595.605	20609.856
595.733	20636.827
595.862	20684.163
595.990	20693.721
596.118	20727.760
596.246	20845.615
596.374	20764.163
596.502	20823.837
596.630	20833.183
596.758	20836.510
596.887	20903.327
597.015	20912.663
597.143	20927.192
597.271	20904.942
597.399	20966.808
597.527	20904.394
597.655	20941.231
597.783	20919.644
597.912	20912.529
598.040	20950.875
598.168	20930.933
598.296	20895.644
598.424	21053.971
598.552	20863.250
598.680	20861.346
598.808	20977.298
598.937	20905.048
599.065	20854.817
599.193	20944.962
599.321	20896.817
599.449	20852.462
599.577	20824.144
599.705	20863.846
599.833	20810.885
599.962	20809.298
600.090	20808.269
600.218	20775.067
600.346	20779.221
600.474	20787.000
600.602	20783.990
600.730	20767.663
600.858	20815.971
600.987	20939.865
601.115	20781.519
601.243	20889.010
601.371	20926.538
601.499	20936.529
601.627	20964.510
601.755	20978.356
601.883	21019.731
602.012	20883.317
602.140	21044.808
602.268	21023.106
602.396	21191.933
602.524	21099.327
602.652	21222.490
602.780	21198.317
602.908	21292.115
603.037	21374.404
603.165	21388.096
603.293	21409.404
603.421	21493.298
603.549	21545.510
603.677	21591.385
603.805	21646.635
603.933	21726.779
604.062	21781.731
604.190	21859.038
604.318	21880.596
604.446	21953.788
604.574	21978.712
604.702	21994.779
604.830	22034.048
604.958	22046.885
605.087	22144.087
605.215	22217.106
605.343	22305.548
605.471	22288.981
605.599	22295.356
605.727	22481.288
605.855	22430.202
605.983	22481.096
606.112	22519.288
606.240	22535.683
606.368	22547.221
606.496	22562.769
606.624	22696.038
606.752	22649.260
606.880	22686.077
607.008	22721.490
607.137	22685.904
607.265	22731.913
607.393	22742.827
607.521	22821.606
607.649	22727.875
607.777	22719.327
607.905	22753.077
608.033	22711.173
608.162	22694.212
608.290	22707.702
608.418	22818.087
608.546	22745.933
608.674	22789.308
608.802	22725.404
608.930	22713.385
609.058	22671.654
609.187	22680.212
609.315	22645.673
609.443	22653.933
609.571	22780.279
609.699	22640.375
609.827	22635.433
609.955	22635.317
610.083	22584.192
610.212	22547.567
610.340	22460.442
610.468	22529.413
610.596	22534.875
610.724	22496.173
610.852	22571.385
610.980	22524.048
611.108	22497.798
611.237	22502.856
611.365	22510.231
611.493	22474.885
611.621	22470.269
611.749	22520.875
611.877	22583.683
612.005	22486.192
612.133	22588.606
612.262	22577.029
612.390	22621.288
612.518	22609.673
612.646	22545.529
612.774	22637.221
612.902	22682.375
613.030	22699.596
613.158	22670.990
613.287	22745.346
613.415	22674.173
613.543	22779.692
613.671	22730.692
613.799	22805.894
613.927	22819.240
614.055	22894.865
614.183	22902.788
614.312	22874.654
614.440	23033.404
614.568	23012.577
614.696	23015.202
614.824	23019.250
614.952	23071.202
615.080	23122.192
615.208	23162.548
615.337	23219.385
615.465	23151.702
615.593	23285.952
615.721	23224.365
615.849	23309.250
615.977	23265.471
616.105	23327.288
616.233	23379.904
616.362	23428.154
616.490	23430.260
616.618	23458.462
616.746	23580.894
616.874	23524.971
617.002	23565.750
617.130	23575.558
617.258	23595.260
617.387	23627.817
617.515	23636.250
617.643	23629.154
617.771	23680.798
617.899	23639.740
618.027	23680.644
618.155	23721.654
618.283	23684.452
618.412	23746.096
618.540	23785.000
618.668	23721.788
618.796	23770.308
618.924	23733.163
619.052	23812.308
619.180	23710.942
619.308	23681.971
619.437	23696.067
619.565	23713.317
619.693	23693.875
619.821	23770.163
619.949	23732.923
620.077	23707.327
620.205	23738.923
620.333	23757.692
620.462	23681.279
620.590	23755.067
620.718	23736.587
620.846	23713.721
620.974	23706.481
621.102	23759.548
621.230	23699.827
621.358	23843.538
621.487	23712.346
621.615	23702.298
621.743	23556.337
621.871	23658.519
621.999	23613.625
622.127	23556.288
622.255	23593.596
622.383	23532.760
622.512	23526.202
622.640	23494.192
622.768	23527.452
622.896	23578.077
623.024	23515.423
623.152	23453.087
623.280	23542.692
623.408	23477.500
623.537	23504.500
623.665	23415.038
623.793	23488.606
623.921	23448.356
624.049	23392.856
624.177	23406.769
624.305	23370.769
624.433	23399.731
624.562	23389.000
624.690	23470.442
624.818	23314.096
624.946	23276.442
625.074	23244.538
625.202	23252.702
625.330	23245.385
625.458	23308.913
625.587	23250.721
625.715	23274.202
625.843	23207.808
625.971	23242.231
626.099	23221.337
626.227	23193.433
626.355	23121.913
626.483	23196.837
626.612	23119.240
626.740	23210.183
626.868	23120.471
626.996	23231.327
627.124	23129.010
627.252	23119.490
627.380	23166.058
627.508	23068.192
627.637	23115.077
627.765	23184.010
627.893	23195.721
628.021	23193.356
628.149	23116.731
628.277	23148.385
628.405	23097.798
628.533	23122.413
628.662	23128.212
628.790	23207.048
628.918	23135.029
629.046	23204.981
629.174	23105.885
629.302	23120.952
629.430	23119.221
629.558	23185.106
629.687	23118.971
629.815	23131.538
629.943	23235.683
630.071	23159.933
630.199	23157.702
630.327	23189.500
630.455	23202.481
630.583	23184.260
630.712	23249.692
630.840	23197.837
630.968	23167.240
631.096	23207.154
631.224	23176.048
631.352	23320.875
631.480	23233.981
631.608	23418.154
631.737	23161.115
631.865	23294.548
631.993	23248.202
632.121	23404.394
632.249	23252.692
632.377	23186.683
632.505	23196.096
632.633	23302.173
632.762	23192.548
632.890	23212.433
633.018	23151.894
633.146	23155.019
633.274	23091.404
633.402	23170.490
633.530	23094.500
633.658	23099.413
633.787	23054.115
633.915	23008.529
634.043	23040.769
634.171	23032.500
634.299	22972.058
634.427	22915.365
634.555	23124.721
634.683	22889.298
634.812	22856.038
634.940	22806.567
635.068	22779.519
635.196	22709.346
635.324	22705.558
635.452	22663.490
635.580	22726.260
635.708	22558.125
635.837	22603.250
635.965	22509.490
636.093	22501.712
636.221	22388.788
636.349	22286.442
636.477	22256.740
636.605	22258.510
636.733	22205.019
636.862	22168.077
636.990	22111.327
637.118	22016.096
637.246	21973.981
637.374	22070.106
637.502	21867.962
637.630	21787.038
637.758	21768.404
637.887	21672.587
638.015	21840.538
638.143	21652.923
638.271	21570.548
638.399	21584.317
638.527	21498.529
638.655	21405.010
638.783	21395.317
638.912	21449.606
639.040	21317.519
639.168	21217.288
639.296	21186.096
639.424	21223.019
639.552	21171.538
639.680	21152.808
639.808	21097.462
639.937	21007.433
640.065	20990.788
640.193	20984.769
640.321	21098.635
640.449	20973.471
640.577	20886.462
640.705	20906.125
640.833	20843.808
640.962	20928.615
641.090	20804.471
641.218	20793.212
641.346	20855.865
641.474	20773.173
641.602	20747.135
641.730	20725.510
641.858	20698.327
641.987	20682.192
642.115	20862.356
642.243	20688.644
642.371	20801.962
642.499	20616.721
642.627	20667.413
642.755	20609.096
642.883	20569.144
643.012	20554.413
643.140	20594.087
643.268	20546.779
643.396	20526.577
643.524	20503.962
643.652	20560.702
643.780	20478.433
643.908	20440.106
644.037	20499.577
644.165	20488.163
644.293	20582.894
644.421	20382.875
644.549	20380.327
644.677	20450.442
644.805	20331.394
644.933	20315.471
645.062	20349.548
645.190	20450.990
645.318	20275.721
645.446	20227.048
645.574	20202.038
645.702	20198.904
645.830	20167.279
645.958	20093.144
646.087	20046.942
646.215	20015.404
646.343	19990.077
646.471	20114.740
646.599	19936.231
646.727	19911.212
646.855	19886.721
646.983	19839.788
647.112	19854.942
647.240	19742.615
647.368	19810.808
647.496	19716.875
647.624	19665.933
647.752	19651.971
647.880	19576.721
648.008	19556.490
648.137	19552.096
648.265	19450.260
648.393	19498.394
648.521	19420.942
648.649	19476.596
648.777	19407.154
648.905	19304.750
649.033	19346.798
649.162	19158.096
649.290	19101.865
649.418	19050.327
649.546	19156.327
649.674	18958.375
649.802	18905.346
649.930	18858.990
650.058	18833.837
650.187	18823.875
650.315	18750.942
650.443	18706.817
650.571	18618.808
650.699	18578.462
650.827	18515.817
650.955	18445.673
651.083	18457.346
651.212	18361.010
651.340	18332.817
651.468	18267.654
651.596	18234.144
651.724	18176.202
651.852	18130.288
651.980	18127.365
652.108	17996.058
652.237	18047.519
652.365	17913.673
652.493	17871.894
652.621	17815.481
652.749	17757.606
652.877	17749.923
653.005	17731.567
653.133	17647.087
653.262	17611.788
653.390	17548.865
653.518	17632.558
653.646	17455.010
653.774	17431.317
653.902	17428.702
654.030	17343.981
654.158	17203.856
654.287	17249.442
654.415	17142.721
654.543	17178.567
654.671	17093.692
654.799	17065.587
654.927	16995.981
655.055	16915.240
655.183	16922.567
655.312	16886.635
655.440	16787.885
655.568	16770.058
655.696	16789.279
655.824	16679.231
655.952	16668.279
656.080	16575.712
656.208	16550.288
656.337	16553.625
656.465	16628.894
656.593	16438.087
656.721	16467.663
656.849	16453.279
656.977	16240.817
657.105	16250.106
657.233	16202.702
657.362	16260.856
657.490	16186.673
657.618	16127.952
657.746	16092.135
657.874	15996.500
658.002	15897.125
658.130	15833.856
658.258	15782.029
658.387	15758.365
658.515	15689.154
658.643	15622.087
658.771	15683.096
658.899	15540.702
659.027	15511.029
659.155	15486.365
659.283	15442.798
659.412	15414.135
659.540	15371.712
659.668	15347.875
659.796	15367.644
659.924	15290.279
660.052	15330.673
660.180	15266.106
660.308	15283.644
660.437	15213.529
660.565	15153.923
660.693	15060.231
660.821	15161.779
660.949	14908.365
661.077	14946.798
661.205	15038.279
661.333	14872.221
661.462	14822.567
661.590	14889.596
661.718	14751.606
661.846	14758.606
661.974	14698.952
662.102	14657.510
662.230	14621.606
662.358	14474.990
662.487	14540.212
662.615	14493.548
662.743	14456.692
662.871	14396.971
662.999	14343.663
663.127	14314.644
663.255	14275.942
663.383	14398.394
663.512	14208.125
663.640	14214.202
663.768	14196.596
663.896	14128.519
664.024	14105.433
664.152	14051.933
664.280	14090.538
664.408	13952.846
664.537	13923.096
664.665	13925.462
664.793	13897.452
664.921	13851.846
665.049	13891.250
665.177	13778.567
665.305	13786.962
665.433	13770.279
665.562	13860.106
665.690	13713.577
665.818	13785.125
665.946	13590.587
666.074	13562.750
666.202	13525.337
666.330	13443.125
666.458	13799.625
666.587	13460.692
666.715	13414.942
666.843	13379.587
666.971	13353.212
667.099	13350.115
667.227	13408.990
667.355	13330.192
667.483	13243.644
667.612	13252.587
667.740	13230.913
667.868	13135.115
667.996	13126.923
668.124	13104.462
668.252	13190.106
668.380	13026.856
668.508	13037.173
668.637	12982.067
668.765	12983.894
668.893	12918.010
669.021	12828.067
669.149	12868.567
669.277	12728.356
669.405	12825.231
669.533	12764.913
669.662	12706.269
669.790	12660.875
669.918	12627.788
670.046	12721.183
670.174	12523.894
670.302	12503.663
670.430	12419.029
670.558	12441.173
670.687	12524.058
670.815	12319.875
670.943	12386.875
671.071	12249.077
671.199	12182.356
671.327	12214.096
671.455	12200.558
671.583	12086.202
671.712	12099.625
671.840	12096.962
671.968	12186.654
672.096	12136.231
672.224	11903.038
672.352	11898.327
672.480	11804.644
672.608	11822.837
672.737	11740.337
672.865	11696.587
672.993	11664.952
673.121	11594.346
673.249	11602.933
673.377	11509.135
673.505	11491.808
673.633	11494.346
673.762	11402.413
673.890	11373.192
674.018	11372.596
674.146	11269.596
674.274	11227.933
674.402	11254.394
674.530	11212.865
674.658	11125.442
674.787	11095.096
674.915	11188.769
675.043	11020.000
675.171	10991.817
675.299	10914.500
675.427	10821.115
675.555	10845.923
675.683	10832.827
675.812	10769.894
675.940	10718.577
676.068	10661.337
676.196	10652.135
676.324	10566.615
676.452	10522.183
676.580	10460.192
676.708	10449.231
676.837	10408.423
676.965	10495.942
677.093	10510.327
677.221	10341.654
677.349	10284.231
677.477	10321.279
677.605	10177.298
677.733	10174.135
677.862	10141.365
677.990	10096.721
678.118	10125.750
678.246	10032.942
678.374	10089.413
678.502	9930.885
678.630	9868.779
678.758	9900.375
678.887	10013.452
679.015	9768.933
679.143	9746.760
679.271	9702.010
679.399	9682.673
679.527	9721.010
679.655	9722.096
679.783	9608.481
679.912	9564.462
680.040	9706.000
680.168	9487.904
680.296	9501.923
680.424	9454.827
680.552	9408.865
680.680	9369.317
680.808	9311.154
680.937	9264.942
681.065	9333.346
681.193	9224.317
681.321	9189.173
681.449	9246.269
681.577	9180.067
681.705	9141.462
681.833	9128.019
681.962	9047.587
682.090	9051.808
682.218	9037.029
682.346	9052.279
682.474	8956.375
682.602	8934.875
682.730	8999.135
682.858	8862.558
682.987	8875.962
683.115	8866.000
683.243	8815.558
683.371	8790.962
683.499	8716.865
683.627	8789.865
683.755	8744.212
683.883	8703.048
684.012	8693.000
684.140	8613.231
684.268	8631.750
684.396	8664.433
684.524	8568.952
684.652	8581.413
684.780	8607.144
684.908	8540.587
685.037	8532.125
685.165	8510.471
685.293	8554.288
685.421	8480.846
685.549	8439.587
685.677	8408.529
685.805	8427.163
685.933	8372.712
686.062	8329.413
686.190	8316.087
686.318	8287.962
686.446	8260.356
686.574	8206.375
686.702	8273.683
686.830	8153.288
686.958	8202.548
687.087	8131.125
687.215	8124.558
687.343	8102.490
687.471	8230.462
687.599	7999.798
687.727	8019.875
687.855	7956.058
687.983	7919.298
688.112	8004.548
688.240	7922.942
688.368	7912.731
688.496	7853.442
688.624	7820.548
688.752	7933.471
688.880	7823.731
689.008	7761.231
689.137	7757.192
689.265	7690.779
689.393	7692.692
689.521	7683.404
689.649	7720.308
689.777	7673.288
689.905	7690.606
690.033	7544.740
690.162	7531.481
690.290	7564.827
690.418	7473.404
690.546	7520.567
690.674	7478.577
690.802	7484.577
690.930	7444.500
691.058	7401.587
691.187	7372.750
691.315	7334.125
691.443	7302.712
691.571	7295.442
691.699	7252.115
691.827	7197.385
691.955	7214.846
692.083	7174.462
692.212	7172.346
692.340	7137.942
692.468	7147.462
692.596	7132.308
692.724	7043.058
692.852	7048.577
692.980	7059.788
693.108	7060.904
693.237	6950.971
693.365	6933.779
693.493	6893.654
693.621	6898.250
693.749	6835.913
693.877	6895.221
694.005	6771.683
694.133	6771.385
694.262	6809.385
694.390	6701.317
694.518	6728.981
694.646	6684.856
694.774	6596.442
694.902	6614.933
695.030	6592.106
695.158	6587.154
695.287	6542.385
695.415	6564.683
695.543	6487.769
695.671	6451.346
695.799	6563.106
695.927	6474.125
696.055	6425.558
696.183	6380.471
696.312	6539.106
696.440	6373.625
696.568	6345.644
696.696	6234.019
696.824	6201.346
696.952	6205.327
697.080	6203.856
697.208	6150.125
697.337	6113.125
697.465	6112.183
697.593	6062.490
697.721	6165.837
697.849	6034.731
697.977	6070.500
698.105	6063.413
698.233	6009.192
698.362	5920.875
698.490	6065.346
698.618	5883.077
698.746	5870.846
698.874	5908.385
699.002	5865.933
699.130	5872.048
699.258	5806.288
699.387	5735.606
699.515	5768.077
699.643	5774.423
699.771	5805.654
699.899	5677.817
700.027	5624.798
700.155	5696.462
700.283	5568.038
700.412	5578.962
700.540	5588.740
700.668	5637.413
700.796	5505.942
700.924	5528.798
701.052	5518.058
701.180	5494.423
701.308	5402.625
701.437	5383.231
701.565	5348.087
701.693	5403.000
701.821	5522.702
701.949	5270.308
702.077	5294.740
702.205	5351.490
702.333	5263.942
702.462	5223.337
702.590	5249.731
702.718	5132.413
702.846	5334.817
702.974	5104.260
703.102	5106.365
703.230	5088.106
703.358	5023.635
703.487	5038.731
703.615	5008.337
703.743	4984.606
703.871	4989.308
703.999	4958.990
704.127	4909.587
704.255	4885.596
704.383	4915.019
704.512	4957.519
704.640	4890.558
704.768	4936.471
704.896	4802.327
705.024	4752.596
705.152	4773.327
705.280	4797.740
705.408	4726.144
705.537	4672.952
705.665	4689.962
705.793	4650.673
705.921	4630.712
706.049	4591.269
706.177	4621.885
706.305	4559.865
706.433	4598.481
706.562	4529.894
706.690	4540.567
706.818	4527.846
706.946	4460.058
707.074	4436.510
707.202	4405.471
707.330	4396.942
707.458	4383.337
707.587	4347.452
707.715	4367.606
707.843	4368.442
707.971	4351.413
708.099	4246.798
708.227	4281.942
708.355	4253.240
708.483	4222.029
708.612	4224.923
708.740	4180.712
708.868	4176.019
708.996	4232.221
709.124	4211.077
709.252	4148.875
709.380	4153.923
709.508	4086.817
709.637	4101.394
709.765	4071.269
709.893	4097.385
710.021	4029.798
710.149	4103.529
710.277	3976.913
710.405	3972.288
710.533	3973.183
710.662	3953.721
710.790	4075.404
710.918	3877.087
711.046	3966.404
711.174	3875.846
711.302	3939.837
711.430	3867.510
711.558	3890.635
711.687	3862.769
711.815	3799.500
711.943	3784.683
712.071	3774.231
712.199	3828.846
712.327	3855.288
712.455	3727.288
712.583	3930.663
712.712	3737.635
712.840	3784.125
712.968	3713.952
713.096	3688.952
713.224	3668.144
713.352	3663.471
713.480	3604.346
713.608	3603.260
713.737	3548.173
713.865	3618.817
713.993	3562.308
714.121	3591.413
714.249	3546.221
714.377	3534.952
714.505	3506.933
714.633	3518.837
714.762	3501.337
714.890	3493.394
715.018	3478.692
715.146	3513.837
715.274	3455.385
715.402	3444.587
715.530	3425.404
715.658	3450.587
715.787	3392.817
715.915	3488.500
716.043	3388.202
716.171	3488.692
716.299	3334.856
716.427	3406.183
716.555	3319.837
716.683	3309.981
716.812	3298.433
716.940	3268.202
717.068	3240.721
717.196	3401.875
717.324	3279.865
717.452	3236.202
717.580	3291.163
717.708	3188.173
717.837	3196.279
717.965	3227.067
718.093	3178.471
718.221	3218.346
718.349	3222.385
718.477	3134.019
718.605	3206.019
718.733	3148.663
718.862	3155.317
718.990	3084.269
719.118	3142.240
719.246	3055.115
719.374	3045.750
719.502	3089.923
719.630	3163.923
719.758	3004.029
719.887	2990.154
720.015	3015.356
720.143	3039.548
720.271	2942.875
720.399	2991.192
720.527	2934.135
720.655	3015.000
720.783	2932.510
720.912	2885.231
721.040	2915.558
721.168	2926.683
721.296	2860.606
721.424	2881.788
721.552	2825.240
721.680	2899.654
721.808	2861.721
721.937	2825.163
722.065	2840.500
722.193	2816.577
722.321	2807.298
722.449	2801.750
722.577	2758.115
722.705	2744.933
722.833	2761.846
722.962	2758.067
723.090	2722.990
723.218	2717.250
723.346	2727.183
723.474	2685.471
723.602	2662.827
723.730	2643.394
723.858	2632.558
723.987	2646.327
724.115	2631.865
724.243	2643.760
724.371	2614.702
724.499	2591.192
724.627	2572.365
724.755	2562.731
724.883	2623.846
725.012	2650.635
725.140	2553.260
725.268	2503.279
725.396	2526.894
725.524	2573.433
725.652	2456.240
725.780	2540.769
725.908	2456.010
726.037	2449.269
726.165	2448.875
726.293	2400.260
726.421	2410.058
726.549	2428.490
726.677	2423.510
726.805	2366.106
726.933	2390.577
727.062	2376.606
727.190	2361.490
727.318	2341.346
727.446	2352.971
727.574	2323.894
727.702	2313.135
727.830	2345.750
727.958	2338.788
728.087	2350.933
728.215	2336.894
728.343	2305.106
728.471	2290.212
728.599	2326.260
728.727	2269.413
728.855	2275.779
728.983	2251.865
729.112	2262.327
729.240	2245.221
729.368	2246.192
729.496	2237.827
729.624	2226.231
729.752	2222.942
729.880	2219.481
730.008	2204.500
730.137	2203.365
730.265	2179.952
730.393	2184.721
730.521	2152.115
730.649	2141.115
730.777	2136.663
730.905	2136.683
731.033	2094.923
731.162	2109.317
731.290	2115.673
731.418	2103.106
731.546	2077.817
731.674	2082.010
731.802	2071.606
731.930	2070.500
732.058	2041.750
732.187	2042.865
732.315	2050.452
732.443	2051.212
732.571	2040.846
732.699	2015.173
732.827	2047.288
732.955	2045.971
733.083	2012.731
733.212	2014.635
733.340	2010.010
733.468	1981.750
733.596	1955.808
733.724	1956.308
733.852	1965.058
733.980	1938.798
734.108	1956.760
734.237	1947.010
734.365	1953.250
734.493	1922.721
734.621	1922.106
734.749	1915.212
734.877	1882.567
735.005	1895.779
735.133	1909.462
735.262	1892.798
735.390	1861.827
735.518	1868.548
735.646	1858.029
735.774	1862.442
735.902	1858.346
736.030	1841.837
736.158	1845.587
736.287	1855.010
736.415	1834.625
736.543	1814.269
736.671	1793.240
736.799	1808.231
736.927	1802.356
737.055	1805.846
737.183	1787.048
737.312	1765.010
737.440	1771.221
737.568	1759.894
737.696	1753.683
737.824	1760.702
737.952	1969.827
738.080	1732.365
738.208	1732.365
738.337	1728.327
738.465	1719.519
738.593	1699.721
738.721	1694.538
738.849	1715.587
738.977	1688.644
739.105	1706.385
739.233	1688.731
739.362	1674.404
739.490	1664.692
739.618	1676.442
739.746	1651.894
739.874	1634.663
740.002	1656.933
740.130	1619.942
740.258	1619.192
740.387	1640.365
740.515	1627.327
740.643	1593.846
740.771	1609.413
740.899	1583.260
741.027	1600.625
741.155	1577.635
741.283	1581.721
741.412	1607.010
741.540	1576.740
741.668	1553.212
741.796	1559.942
741.924	1550.760
742.052	1542.288
742.180	1547.587
742.308	1529.423
742.437	1510.615
742.565	1527.981
742.693	1527.596
742.821	1532.173
742.949	1501.971
743.077	1477.000
743.205	1492.048
743.333	1466.125
743.462	1484.231
743.590	1456.490
743.718	1470.173
743.846	1456.413
743.974	1484.635
744.102	1450.817
744.230	1441.067
744.358	1453.375
744.487	1422.356
744.615	1420.721
744.743	1427.385
744.871	1426.183
744.999	1417.048
745.127	1424.096
745.255	1388.038
745.383	1401.115
745.512	1382.481
745.640	1380.558
745.768	1377.106
745.896	1370.731
746.024	1366.721
746.152	1377.173
746.280	1360.298
746.408	1363.423
746.537	1343.865
746.665	1363.913
746.793	1332.683
746.921	1326.135
747.049	1329.846
747.177	1321.077
747.305	1333.010
747.433	1317.798
747.562	1304.135
747.690	1305.029
747.818	1285.923
747.946	1296.875
748.074	1287.337
748.202	1282.269
748.330	1267.462
748.458	1275.683
748.587	1276.327
748.715	1271.058
748.843	1250.596
748.971	1240.990
749.099	1250.481
749.227	1254.702
749.355	1266.490
749.483	1220.087
749.612	1257.346
749.740	1236.010
749.868	1221.692
749.996	1219.202
750.124	1229.856
750.252	1212.231
750.380	1194.173
750.508	1218.221
750.637	1200.173
750.765	1201.337
750.893	1192.971
751.021	1187.788
751.149	1182.365
751.277	1171.000
751.405	1167.712
751.533	1189.375
751.662	1162.865
751.790	1158.865
751.918	1146.567
752.046	1141.577
752.174	1143.163
752.302	1131.346
752.430	1122.635
752.558	1128.375
752.687	1126.913
752.815	1116.788
752.943	1113.288
753.071	1109.231
753.199	1112.404
753.327	1124.163
753.455	1090.144
753.583	1073.702
753.712	1078.779
753.840	1094.875
753.968	1072.202
754.096	1077.317
754.224	1081.750
754.352	1047.385
754.480	1080.019
754.608	1051.750
754.737	1048.788
754.865	1060.673
754.993	1058.183
755.121	1048.817
755.249	1024.894
755.377	1007.135
755.505	1027.510
755.633	1022.933
755.762	1012.087
755.890	1028.317
756.018	1008.760
756.146	997.952
756.274	993.212
756.402	993.981
756.530	1004.702
756.658	985.673
756.787	977.548
756.915	971.788
757.043	958.202
757.171	972.317
757.299	979.577
757.427	957.567
757.555	951.663
757.683	956.202
757.812	960.212
757.940	945.202
758.068	941.125
758.196	937.365
758.324	936.625
758.452	937.038
758.580	933.558
758.708	922.740
758.837	937.875
758.965	930.240
759.093	913.952
759.221	899.327
759.349	895.038
759.477	892.000
759.605	885.788
759.733	901.702
759.862	881.048
759.990	879.769
760.118	877.038
760.246	882.240
760.374	880.077
760.502	872.250
760.630	854.337
760.758	860.712
760.887	856.952
761.015	857.029
761.143	857.077
761.271	851.837
761.399	840.538
761.527	854.048
761.655	853.644
761.783	826.144
761.912	827.269
762.040	837.567
762.168	815.692
762.296	808.519
762.424	822.683
762.552	820.779
762.680	795.990
762.808	820.058
762.937	809.923
763.065	788.846
763.193	790.615
763.321	780.010
763.449	782.683
763.577	770.163
763.705	793.327
763.833	782.298
763.962	768.788
764.090	767.442
764.218	758.019
764.346	756.837
764.474	759.827
764.602	752.096
764.730	758.327
764.858	760.404
764.987	753.683
765.115	748.971
765.243	734.192
765.371	737.269
765.499	724.250
765.627	731.779
765.755	731.558
765.883	722.596
766.012	730.038
766.140	718.712
766.268	720.933
766.396	725.577
766.524	712.625
766.652	700.365
766.780	705.558
766.908	705.904
767.037	714.923
767.165	702.904
767.293	705.788
767.421	702.221
767.549	685.817
767.677	709.500
767.805	684.519
767.933	685.413
768.062	670.163
768.190	672.327
768.318	670.279
768.446	672.769
768.574	667.231
768.702	673.183
768.830	667.788
768.958	655.404
769.087	672.923
769.215	657.365
769.343	654.115
769.471	664.375
769.599	654.827
769.727	652.212
769.855	641.760
769.983	672.029
770.112	639.635
770.240	632.394
770.368	633.010
770.496	628.500
770.624	636.202
770.752	626.663
770.880	634.558
771.008	622.087
771.137	606.875
771.265	610.471
771.393	604.952
771.521	605.558
771.649	622.519
771.777	642.971
771.905	660.827
772.033	642.596
772.162	593.962
772.290	593.154
772.418	605.625
772.546	589.606
772.674	597.327
772.802	589.269
772.930	592.096
773.058	594.375
773.187	582.413
773.315	584.740
773.443	584.635
773.571	580.663
773.699	572.904
773.827	585.519
773.955	587.808
774.083	575.731
774.212	569.471
774.340	569.048
774.468	561.587
774.596	566.798
774.724	570.885
774.852	577.202
774.980	565.462
775.108	553.058
775.237	545.683
775.365	553.346
775.493	549.923
775.621	546.288
775.749	550.404
775.877	556.183
776.005	548.875
776.133	540.673
776.262	542.558
776.390	537.740
776.518	530.692
776.646	528.067
776.774	535.115
776.902	523.750
777.030	526.702
777.158	528.423
777.287	535.077
777.415	517.423
777.543	525.212
777.671	521.827
777.799	522.663
777.927	514.808
778.055	517.365
778.183	509.904
778.312	505.817
778.440	507.606
778.568	523.183
778.696	515.721
778.824	514.077
778.952	511.279
779.080	505.240
779.208	505.058
779.337	506.490
779.465	508.423
779.593	494.010
779.721	500.356
779.849	492.942
779.977	495.010
780.105	494.058
780.233	498.346
780.362	495.115
780.490	482.038
780.618	485.587
780.746	486.077
780.874	480.673
781.002	480.923
781.130	481.808
781.258	474.865
781.387	481.212
781.515	473.837
781.643	472.298
781.771	476.529
781.899	481.269
782.027	464.115
782.155	468.894
782.283	458.798
782.412	469.048
782.540	474.404
782.668	464.125
782.796	459.558
782.924	473.000
783.052	468.490
783.180	458.875
783.308	454.596
783.437	455.865
783.565	463.000
783.693	460.596
783.821	459.885
783.949	459.962
784.077	455.952
784.205	451.808
784.333	444.750
784.462	451.442
784.590	437.510
784.718	430.933
784.846	445.875
784.974	456.865
785.102	439.288
785.230	439.971
785.358	434.288
785.487	430.231
785.615	429.106
785.743	432.519
785.871	437.269
785.999	434.413
786.127	435.106
786.255	423.288
786.383	425.288
786.512	426.337
786.640	425.163
786.768	414.404
786.896	417.606
787.024	414.538
787.152	415.423
787.280	434.087
787.408	420.500
787.537	424.846
787.665	419.702
787.793	403.356
787.921	410.529
788.049	410.298
788.177	409.875
788.305	405.144
788.433	408.279
788.562	404.288
788.690	403.337
788.818	399.221
788.946	393.365
789.074	390.894
789.202	393.260
789.330	393.837
789.458	400.240
789.587	389.365
789.715	396.990
789.843	396.692
789.971	391.654
790.099	387.375
790.227	385.779
790.355	391.721
790.483	393.760
790.612	388.567
790.740	392.644
790.868	377.865
790.996	395.846
791.124	396.587
791.252	387.173
791.380	380.827
791.508	386.635
791.637	381.712
791.765	373.558
791.893	382.231
792.021	385.404
792.149	371.558
792.277	372.615
792.405	364.856
792.533	381.135
792.662	371.894
792.790	373.394
792.918	380.500
793.046	367.779
793.174	369.760
793.302	367.596
793.430	362.471
793.558	376.625
793.687	362.615
793.815	359.096
793.943	372.904
794.071	353.875
794.199	359.163
794.327	358.183
794.455	366.885
794.583	360.327
794.712	352.125
794.840	350.519
794.968	358.000
795.096	368.192
795.224	345.683
795.352	389.548
795.480	345.442
795.608	344.577
795.737	345.433
795.865	340.558
795.993	353.173
796.121	345.077
796.249	341.490
796.377	345.019
796.505	342.394
796.633	343.279
796.762	335.442
796.890	333.856
797.018	339.490
797.146	345.519
797.274	343.365
797.402	331.683
797.530	331.000
797.658	329.385
797.787	343.962
797.915	336.260
798.043	328.471
798.171	335.288
798.299	320.163
798.427	334.760
798.555	340.837
798.683	325.000
798.812	354.279
798.940	367.394
799.068	356.038
799.196	328.212
799.324	332.288
799.452	320.413
799.580	318.375
799.708	319.452
799.837	320.096
799.965	315.904
800.093	320.654
800.221	317.010
800.349	317.529
800.477	309.952
800.605	306.471
800.733	322.048
800.862	313.298
800.990	310.692
801.118	309.240
801.246	307.644
801.374	315.471
801.502	305.471
801.630	307.442
801.758	306.663
801.887	296.635
802.015	307.673
802.143	297.317
802.271	299.413
802.399	298.010
802.527	292.856
802.655	303.808
802.783	297.240
802.912	292.404
803.040	290.606
803.168	291.231
803.296	298.577
803.424	290.442
803.552	300.683
803.680	295.221
803.808	291.625
803.937	293.010
804.065	295.635
804.193	297.192
804.321	310.365
804.449	300.077
804.577	298.029
804.705	308.865
804.833	291.173
804.962	289.942
805.090	290.663
805.218	285.471
805.346	282.721
805.474	295.096
805.602	293.260
805.730	297.683
805.858	280.894
805.987	281.702
806.115	281.885
806.243	287.827
806.371	281.279
806.499	281.106
806.627	273.154
806.755	277.500
806.883	279.663
807.012	275.875
807.140	280.462
807.268	265.913
807.396	274.260
807.524	273.712
807.652	282.317
807.780	270.346
807.908	273.673
808.037	284.962
808.165	280.596
808.293	268.904
808.421	270.048
808.549	270.183
808.677	269.500
808.805	283.327
808.933	269.933
809.062	269.010
809.190	278.096
809.318	271.625
809.446	263.356
809.574	273.240
809.702	258.596
809.830	259.712
809.958	275.019
810.087	264.221
810.215	260.279
810.343	271.558
810.471	266.279
810.599	258.971
810.727	265.365
810.855	260.067
810.983	258.577
811.112	258.788
811.240	257.087
811.368	259.481
811.496	261.260
811.624	260.731
811.752	261.250
811.880	268.144
812.008	263.010
812.137	270.875
812.265	252.971
812.393	255.183
812.521	249.635
812.649	256.183
812.777	251.135
812.905	260.567
813.033	263.250
813.162	251.615
813.290	252.529
813.418	255.058
813.546	247.913
813.674	252.240
813.802	247.779
813.930	249.577
814.058	249.625
814.187	250.163
814.315	247.192
814.443	248.452
814.571	248.577
814.699	239.615
814.827	248.942
814.955	244.356
815.083	242.817
815.212	246.135
815.340	239.856
815.468	251.510
815.596	237.221
815.724	243.250
815.852	248.269
815.980	236.875
816.108	239.404
816.237	243.346
816.365	255.519
816.493	241.538
816.621	248.192
816.749	235.663
816.877	299.404
817.005	254.067
817.133	246.154
817.262	241.952
817.390	235.500
817.518	245.135
817.646	230.683
817.774	227.452
817.902	229.904
818.030	225.692
818.158	238.663
818.287	231.375
818.415	229.288
818.543	231.731
818.671	234.702
818.799	233.538
818.927	226.173
819.055	252.317
819.183	235.558
819.312	252.096
819.440	233.779
819.568	225.087
819.696	229.135
819.824	228.712
819.952	229.702
820.080	230.058
820.208	225.423
820.337	230.173
820.465	228.317
820.593	227.346
820.721	228.712
820.849	223.712
820.977	227.721
821.105	224.471
821.233	218.875
821.362	231.692
821.490	218.481
821.618	230.625
821.746	229.740
821.874	225.587
822.002	218.952
822.130	222.779
822.258	225.231
822.387	219.442
822.515	223.683
822.643	223.606
822.771	217.394
822.899	223.817
823.027	215.567
823.155	224.269
823.283	233.212
823.412	222.077
823.540	218.962
823.668	210.087
823.796	217.798
823.924	216.990
824.052	213.923
824.180	222.529
824.308	217.913
824.437	228.913
824.565	220.529
824.693	209.019
824.821	209.250
824.949	215.952
825.077	217.212
825.205	206.779
825.333	210.154
825.462	219.394
825.590	209.279
825.718	211.221
825.846	212.154
825.974	211.692
826.102	210.231
826.230	215.288
826.358	219.221
826.487	212.808
826.615	212.279
826.743	206.481
826.871	216.519
826.999	205.115
827.127	210.452
827.255	208.058
827.383	201.183
827.512	203.000
827.640	212.577
827.768	224.894
827.896	199.894
828.024	209.471
828.152	207.827
828.280	204.846
828.408	202.837
828.537	209.250
828.665	203.212
828.793	205.558
828.921	205.077
829.049	208.894
829.177	207.279
829.305	202.279
829.433	200.221
829.562	201.769
829.690	206.519
829.818	203.567
829.946	201.192
830.074	200.788
830.202	200.433
830.330	204.510
830.458	193.240
830.587	209.971
830.715	200.865
830.843	196.990
830.971	204.404
831.099	200.538
831.227	227.212
831.355	197.423
831.483	199.183
831.612	199.712
831.740	196.625
831.868	201.923
831.996	203.510
832.124	201.663
832.252	201.740
832.380	197.163
832.508	198.433
832.637	198.135
832.765	203.221
832.893	200.846
833.021	198.442
833.149	190.337
833.277	194.144
833.405	206.702
833.533	191.846
833.662	199.731
833.790	194.163
833.918	199.365
834.046	192.942
834.174	190.981
834.302	203.538
834.430	190.385
834.558	190.856
834.687	196.856
834.815	197.490
834.943	193.337
835.071	194.760
835.199	196.990
835.327	194.058
835.455	201.413
835.583	193.087
835.712	191.038
835.840	196.702
835.968	188.798
836.096	200.135
836.224	190.212
836.352	195.865
836.480	188.837
836.608	187.769
836.737	193.442
836.865	189.981
836.993	195.288
837.121	201.154
837.249	194.894
837.377	188.385
837.505	185.298
837.633	189.048
837.762	191.010
837.890	192.365
838.018	187.837
838.146	185.029
838.274	188.481
838.402	188.740
838.530	202.644
838.658	190.981
838.787	196.048
838.915	181.875
839.043	195.923
839.171	184.606
839.299	190.788
839.427	211.288
839.555	193.212
839.683	184.433
839.812	185.644
839.940	180.875
840.068	183.817
840.196	213.269
840.324	204.673
840.452	193.510
840.580	186.712
840.708	179.029
840.837	187.202
840.965	187.577
841.093	182.202
841.221	185.750
841.349	182.721
841.477	180.529
841.605	181.375
841.733	185.760
841.862	192.077
841.990	186.894
842.118	181.269
842.246	185.740
842.374	176.356
842.502	191.077
842.630	182.452
842.758	180.519
842.887	188.740
843.015	198.192
843.143	181.952
843.271	183.731
843.399	186.231
843.527	184.808
843.655	180.385
843.783	180.240
843.912	177.548
844.040	175.625
844.168	181.144
844.296	193.760
844.424	184.788
844.552	186.385
844.680	184.260
844.808	181.990
844.937	178.125
845.065	177.663
845.193	193.635
845.321	182.817
845.449	189.865
845.577	182.423
845.705	181.356
845.833	175.365
845.962	188.096
846.090	181.106
846.218	193.529
846.346	184.808
846.474	182.163
846.602	174.663
846.730	182.010
846.858	175.144
846.987	177.558
847.115	187.635
847.243	185.212
847.371	172.702
847.499	175.798
847.627	181.567
847.755	179.058
847.883	189.423
848.012	188.635
848.140	172.529
848.268	175.827
848.396	183.135
848.524	188.260
848.652	177.327
848.780	171.596
848.908	179.135
849.037	176.721
849.165	178.635
849.293	181.154
849.421	176.413
849.549	176.865
849.677	175.519
849.805	183.202
849.933	174.221
850.062	179.712
850.190	177.365
850.318	178.423
850.446	181.587
850.574	176.808
850.702	174.837
850.830	170.529
850.958	175.212
851.087	181.817
851.215	174.375
851.343	177.337
851.471	177.365
851.599	184.721
851.727	187.721
851.855	175.346
851.983	181.202
852.112	175.548
852.240	182.654
852.368	187.750
852.496	176.817
852.624	176.635
852.752	184.673
852.880	180.587
853.008	175.894
853.137	178.298
853.265	180.635
853.393	176.817
853.521	168.750
853.649	179.413
853.777	173.183
853.905	169.231
854.033	169.173
854.162	169.606
854.290	175.635
854.418	190.933
854.546	201.904
854.674	192.029
854.802	179.538
854.930	172.452
855.058	180.317
855.187	172.365
855.315	201.269
855.443	173.567
855.571	177.817
855.699	184.769
855.827	164.240
855.955	173.163
856.083	172.673
856.212	174.298
856.340	177.904
856.468	176.558
856.596	176.250
856.724	177.442
856.852	186.885
856.980	171.154
857.108	169.288
857.237	167.260
857.365	179.433
857.493	177.490
857.621	173.692
857.749	170.827
857.877	170.913
858.005	169.779
858.133	173.308
858.262	168.452
858.390	168.644
858.518	168.750
858.646	178.433
858.774	166.615
858.902	168.000
859.030	171.731
859.158	173.500
859.287	170.644
859.415	171.731
859.543	171.413
859.671	173.375
859.799	184.183
859.927	168.740
860.055	167.423
860.183	165.106
860.312	170.375
860.440	169.981
860.568	166.346
860.696	180.019
860.824	180.625
860.952	168.885
861.080	170.923
861.208	173.788
861.337	174.087
861.465	176.433
861.593	175.038
861.721	177.990
861.849	177.635
861.977	168.154
862.105	169.413
862.233	169.654
862.362	168.913
862.490	163.221
862.618	168.510
862.746	171.394
862.874	174.144
863.002	174.135
863.130	173.144
863.258	176.183
863.387	177.471
863.515	171.346
863.643	180.163
863.771	173.846
863.899	170.865
864.027	173.865
864.155	195.683
864.283	170.702
864.412	165.077
864.540	174.413
864.668	166.837
864.796	168.644
864.924	168.106
865.052	164.394
865.180	183.865
865.308	172.981
865.437	172.346
865.565	167.010
865.693	167.856
865.821	166.058
865.949	189.538
866.077	175.106
866.205	168.788
866.333	174.404
866.462	164.779
866.590	173.875
866.718	170.202
866.846	165.760
866.974	169.058
867.102	164.798
867.230	175.019
867.358	169.885
867.487	171.452
867.615	180.365
867.743	167.702
867.871	176.856
867.999	167.231
868.127	182.625
868.255	183.269
868.383	161.558
868.512	170.442
868.640	171.231
868.768	166.510
868.896	178.567
869.024	163.125
869.152	169.606
869.280	164.231
869.408	168.096
869.537	163.317
869.665	164.913
869.793	171.317
869.921	167.000
870.049	162.337
870.177	168.548
870.305	164.452
870.433	170.692
870.562	173.625
870.690	169.327
870.818	174.827
870.946	165.231
871.074	159.817
871.202	166.712
871.330	163.413
871.458	170.221
871.587	168.192
871.715	171.077
871.843	169.663
871.971	173.404
872.099	160.663
872.227	167.423
872.355	165.500
872.483	166.827
872.612	172.144
872.740	165.913
872.868	165.779
872.996	166.740
873.124	175.231
873.252	164.731
873.380	160.087
873.508	176.846
873.637	174.202
873.765	163.221
873.893	166.058
874.021	167.183
874.149	166.115
874.277	166.913
874.405	173.135
874.533	172.375
874.662	163.865
874.790	171.625
874.918	163.904
875.046	170.702
875.174	165.933
875.302	163.962
875.430	166.913
875.558	170.606
875.687	174.817
875.815	164.587
875.943	170.269
876.071	172.154
876.199	167.962
876.327	170.750
876.455	163.221
876.583	162.279
876.712	172.808
876.840	168.048
876.968	166.260
877.096	169.433
877.224	166.529
877.352	160.567
877.480	165.673
877.608	176.779
877.737	169.885
877.865	162.202
877.993	170.721
878.121	170.500
878.249	165.577
878.377	164.154
878.505	167.529
878.633	169.433
878.762	163.981
878.890	164.048
879.018	174.423
879.146	160.721
879.274	190.000
879.402	171.029
879.530	165.673
879.658	165.606
879.787	165.702
879.915	164.875
880.043	159.519
880.171	200.375
880.299	168.760
880.427	171.971
880.555	161.779
880.683	174.788
880.812	167.269
880.940	167.135
881.068	170.663
881.196	164.442
881.324	160.183
881.452	161.452
881.580	173.096
881.708	173.808
881.837	167.933
881.965	169.125
882.093	164.615
882.221	162.375
882.349	164.298
882.477	165.587
882.605	165.462
882.733	173.673
882.862	163.529
882.990	178.606
883.118	172.923
883.246	173.962
883.374	165.577
883.502	173.587
883.630	169.894
883.758	164.654
883.887	168.798
884.015	169.788
884.143	169.962
884.271	166.913
884.399	165.971
884.527	168.837
884.655	162.048
884.783	167.635
884.912	187.817
885.040	172.067
885.168	163.077
885.296	176.904
885.424	168.269
885.552	167.269
885.680	179.000
885.808	171.942
885.937	177.452
886.065	174.202
886.193	167.817
886.321	168.433
886.449	164.712
886.577	164.625
886.705	177.779
886.833	161.567
886.962	169.606
887.090	169.077
887.218	164.442
887.346	164.558
887.474	163.740
887.602	167.144
887.730	161.702
887.858	164.240
887.987	161.288
888.115	167.558
888.243	166.212
888.371	178.606
888.499	165.500
888.627	161.365
888.755	169.827
888.883	166.865
889.012	173.115
889.140	164.500
889.268	167.115
889.396	158.317
889.524	173.231
889.652	163.115
889.780	164.173
889.908	165.740
890.037	174.404
890.165	165.308
890.293	171.000
890.421	168.279
890.549	159.538
890.677	160.212
890.805	165.721
890.933	165.817
891.062	165.317
891.190	164.885
891.318	164.029
891.446	166.452
891.574	159.596
891.702	165.952
891.830	168.125
891.958	174.837
892.087	171.125
892.215	169.827
892.343	171.327
892.471	172.048
892.599	159.990
892.727	168.433
892.855	186.240
892.983	159.067
893.112	162.923
893.240	173.529
893.368	161.942
893.496	171.538
893.624	171.471
893.752	188.538
893.880	172.587
894.008	169.135
894.137	166.769
894.265	172.663
894.393	169.231
894.521	173.760
894.649	168.827
894.777	160.202
894.905	204.240
895.033	164.385
895.162	163.913
895.290	172.000
895.418	167.519
895.546	196.798
895.674	172.038
895.802	207.875
895.930	168.942
896.058	164.731
896.187	169.154
896.315	162.096
896.443	176.000
896.571	190.885
896.699	163.375
896.827	163.183
896.955	168.192
897.083	172.615
897.212	167.394
897.340	165.317
897.468	165.808
897.596	166.010
897.724	165.567
897.852	162.615
897.980	160.356
898.108	175.933
898.237	167.740
898.365	166.221
898.493	168.577
898.621	166.365
898.749	165.115
898.877	165.962
899.005	165.144
899.133	167.337
899.262	180.481
899.390	166.154
899.518	168.635
899.646	161.981
899.774	160.721
899.902	160.269
900.030	174.683
900.158	166.500
900.287	167.567
900.415	159.788
900.543	165.125
900.671	172.673
900.799	163.433
900.927	160.183
901.055	175.865
901.183	175.702
901.312	173.163
901.440	163.288
901.568	159.837
901.696	162.692
901.824	159.750
901.952	162.115
902.080	169.529
902.208	164.827
902.337	176.731
902.465	163.808
902.593	175.654
902.721	189.548
902.849	186.375
902.977	166.577
903.105	171.010
903.233	169.885
903.362	160.433
903.490	172.577
903.618	166.933
903.746	159.317
903.874	168.644
904.002	163.096
904.130	176.952
904.258	158.644
904.387	171.760
904.515	158.462
904.643	169.606
904.771	165.587
904.899	161.663
905.027	170.327
905.155	164.163
905.283	160.490
905.412	177.404
905.540	165.952
905.668	167.029
905.796	164.856
905.924	164.308
906.052	168.442
906.180	168.587
906.308	164.394
906.437	162.596
906.565	168.260
906.693	175.702
906.821	162.548
906.949	164.087
907.077	159.904
907.205	172.673
907.333	159.875
907.462	163.923
907.590	163.606
907.718	165.365
907.846	169.923
907.974	160.990
908.102	167.019
908.230	166.750
908.358	163.971
908.487	162.471
908.615	174.702
908.743	174.510
908.871	164.106
908.999	161.923
909.127	167.971
909.255	175.106
909.383	159.192
909.512	162.337
909.640	180.087
909.768	163.654
909.896	169.750
910.024	176.125
910.152	174.000
910.280	171.298
910.408	164.096
910.537	163.875
910.665	174.712
910.793	171.135
910.921	172.481
911.049	175.923
911.177	176.163
911.305	169.038
911.433	196.115
911.562	172.683
911.690	176.077
911.818	169.231
911.946	166.500
912.074	173.250
912.202	165.981
912.330	186.385
912.458	164.173
912.587	167.721
912.715	173.808
912.843	178.894
912.971	171.721
913.099	187.356
913.227	182.808
913.355	174.606
913.483	184.346
913.612	179.596
913.740	204.058
913.868	174.865
