Ref_Stop_90_Pol_at_750.00nm_cut_at_1179.00Y_01.dat
03.07.2023
11:36:10
cut middle at Y: 1179.00
top cursor: 1231 down cursor: 1127 mean of: 104 lines , 2560 datapoints
wavelength(nm)	intensity[arb. units]
585.996	9064.683
586.124	8862.404
586.252	8876.558
586.380	8858.971
586.508	8912.413
586.637	8987.615
586.765	8946.846
586.893	8961.933
587.021	8994.308
587.149	8999.106
587.277	9042.817
587.405	9011.577
587.533	9071.712
587.662	9131.250
587.790	9095.163
587.918	9089.510
588.046	9060.192
588.174	9090.490
588.302	9058.923
588.430	9061.010
588.558	9110.250
588.687	9116.115
588.815	9078.212
588.943	9132.067
589.071	9088.087
589.199	9131.346
589.327	9116.442
589.455	9179.558
589.583	9096.346
589.712	9125.654
589.840	9082.942
589.968	9089.067
590.096	9103.346
590.224	9071.375
590.352	9154.894
590.480	9084.413
590.608	9079.135
590.737	9092.721
590.865	9176.519
590.993	9016.250
591.121	9092.490
591.249	9069.413
591.377	9061.212
591.505	9158.327
591.633	9078.558
591.762	9065.077
591.890	9096.010
592.018	9146.740
592.146	9085.337
592.274	9095.692
592.402	9079.058
592.530	9276.769
592.658	9184.433
592.787	9176.942
592.915	9208.067
593.043	9085.308
593.171	9190.462
593.299	9151.490
593.427	9167.894
593.555	9165.827
593.683	9138.923
593.812	9200.019
593.940	9220.779
594.068	9211.942
594.196	9193.240
594.324	9208.000
594.452	9384.635
594.580	9291.231
594.708	9325.183
594.837	9297.702
594.965	9372.942
595.093	9326.375
595.221	9413.692
595.349	9400.654
595.477	9385.913
595.605	9402.173
595.733	9401.740
595.862	9418.971
595.990	9457.519
596.118	9486.067
596.246	9564.192
596.374	9490.519
596.502	9478.442
596.630	9509.337
596.758	9496.202
596.887	9499.558
597.015	9478.923
597.143	9492.077
597.271	9495.260
597.399	9569.779
597.527	9516.375
597.655	9523.471
597.783	9555.567
597.912	9514.096
598.040	9569.337
598.168	9513.529
598.296	9487.279
598.424	9668.048
598.552	9510.096
598.680	9489.962
598.808	9570.087
598.937	9514.952
599.065	9524.144
599.193	9566.740
599.321	9558.548
599.449	9483.308
599.577	9501.048
599.705	9536.702
599.833	9505.615
599.962	9456.942
600.090	9477.413
600.218	9476.654
600.346	9461.971
600.474	9488.933
600.602	9460.760
600.730	9455.635
600.858	9432.269
600.987	9504.346
601.115	9467.154
601.243	9535.971
601.371	9541.913
601.499	9534.269
601.627	9534.923
601.755	9481.529
601.883	9548.904
602.012	9463.163
602.140	9558.894
602.268	9528.538
602.396	9651.087
602.524	9538.654
602.652	9621.183
602.780	9632.125
602.908	9647.067
603.037	9686.587
603.165	9672.192
603.293	9680.798
603.421	9726.721
603.549	9726.942
603.677	9787.798
603.805	9780.404
603.933	9798.260
604.062	9850.202
604.190	9902.433
604.318	9914.125
604.446	9883.981
604.574	9931.183
604.702	10020.356
604.830	9944.087
604.958	9985.740
605.087	10008.125
605.215	10072.654
605.343	10197.606
605.471	10149.394
605.599	10160.692
605.727	10258.317
605.855	10223.269
605.983	10243.683
606.112	10278.394
606.240	10277.385
606.368	10296.029
606.496	10270.779
606.624	10319.183
606.752	10305.269
606.880	10356.558
607.008	10334.106
607.137	10333.010
607.265	10411.952
607.393	10385.760
607.521	10452.202
607.649	10380.788
607.777	10373.721
607.905	10400.683
608.033	10334.904
608.162	10385.837
608.290	10399.135
608.418	10502.462
608.546	10454.058
608.674	10431.721
608.802	10363.019
608.930	10403.635
609.058	10328.010
609.187	10344.471
609.315	10320.615
609.443	10322.808
609.571	10462.481
609.699	10325.106
609.827	10401.923
609.955	10337.798
610.083	10259.154
610.212	10262.163
610.340	10253.096
610.468	10266.904
610.596	10271.712
610.724	10228.779
610.852	10275.885
610.980	10253.087
611.108	10210.846
611.237	10198.644
611.365	10239.404
611.493	10177.625
611.621	10204.606
611.749	10188.029
611.877	10267.654
612.005	10209.567
612.133	10221.913
612.262	10236.952
612.390	10287.788
612.518	10315.442
612.646	10217.510
612.774	10304.308
612.902	10315.683
613.030	10258.029
613.158	10294.221
613.287	10363.106
613.415	10224.173
613.543	10310.663
613.671	10317.846
613.799	10353.558
613.927	10347.038
614.055	10413.019
614.183	10357.019
614.312	10324.644
614.440	10505.577
614.568	10432.769
614.696	10484.192
614.824	10448.500
614.952	10505.096
615.080	10488.019
615.208	10516.817
615.337	10640.010
615.465	10557.154
615.593	10614.442
615.721	10620.317
615.849	10697.240
615.977	10641.423
616.105	10703.096
616.233	10700.356
616.362	10724.298
616.490	10692.721
616.618	10740.490
616.746	10878.856
616.874	10802.288
617.002	10811.308
617.130	10837.692
617.258	10792.837
617.387	10805.923
617.515	10828.567
617.643	10824.596
617.771	10909.952
617.899	10834.798
618.027	10896.558
618.155	10931.904
618.283	10925.221
618.412	10923.558
618.540	10984.125
618.668	10927.490
618.796	10956.731
618.924	10881.817
619.052	10944.375
619.180	10916.962
619.308	10906.087
619.437	10913.846
619.565	10893.538
619.693	10875.712
619.821	10923.913
619.949	10898.663
620.077	10893.692
620.205	10917.471
620.333	10956.471
620.462	10875.404
620.590	10928.125
620.718	10906.750
620.846	10938.913
620.974	10947.846
621.102	10975.654
621.230	10940.923
621.358	11057.529
621.487	10871.308
621.615	10899.462
621.743	10840.423
621.871	10928.875
621.999	10834.750
622.127	10868.904
622.255	10843.856
622.383	10832.375
622.512	10817.500
622.640	10812.385
622.768	10849.000
622.896	10937.067
623.024	10878.163
623.152	10838.135
623.280	10917.510
623.408	10815.163
623.537	10867.827
623.665	10792.721
623.793	10864.923
623.921	10839.971
624.049	10817.846
624.177	10810.010
624.305	10780.279
624.433	10835.519
624.562	10794.577
624.690	10941.010
624.818	10741.654
624.946	10772.058
625.074	10754.683
625.202	10742.269
625.330	10748.519
625.458	10881.356
625.587	10748.519
625.715	10803.827
625.843	10771.692
625.971	10771.702
626.099	10753.452
626.227	10783.808
626.355	10740.827
626.483	10803.298
626.612	10736.279
626.740	10765.615
626.868	10729.173
626.996	10809.279
627.124	10773.538
627.252	10745.933
627.380	10757.288
627.508	10726.038
627.637	10780.115
627.765	10773.135
627.893	10787.548
628.021	10863.923
628.149	10782.885
628.277	10871.846
628.405	10823.913
628.533	10796.365
628.662	10837.865
628.790	10911.750
628.918	10822.769
629.046	10949.000
629.174	10812.894
629.302	10867.548
629.430	10775.548
629.558	10876.529
629.687	10814.990
629.815	10872.654
629.943	10980.308
630.071	10920.096
630.199	10887.798
630.327	10930.202
630.455	10968.365
630.583	10944.231
630.712	10945.115
630.840	10952.615
630.968	10933.500
631.096	10963.952
631.224	10974.442
631.352	11102.779
631.480	10994.875
631.608	11193.317
631.737	10977.750
631.865	11098.250
631.993	11082.356
632.121	11174.971
632.249	11053.769
632.377	11013.260
632.505	11047.577
632.633	11040.260
632.762	10985.346
632.890	11013.087
633.018	11025.654
633.146	11000.125
633.274	10972.654
633.402	11009.721
633.530	10956.154
633.658	10987.010
633.787	11012.558
633.915	10957.548
634.043	10967.462
634.171	10992.923
634.299	10973.067
634.427	10940.308
634.555	11179.462
634.683	10950.865
634.812	10940.452
634.940	10915.865
635.068	10889.231
635.196	10917.779
635.324	10873.317
635.452	10898.163
635.580	10971.240
635.708	10824.865
635.837	10868.394
635.965	10833.885
636.093	10800.529
636.221	10768.827
636.349	10727.471
636.477	10708.644
636.605	10736.163
636.733	10683.904
636.862	10679.192
636.990	10696.106
637.118	10629.567
637.246	10609.606
637.374	10728.048
637.502	10551.385
637.630	10543.125
637.758	10550.769
637.887	10446.875
638.015	10598.856
638.143	10536.231
638.271	10434.760
638.399	10471.279
638.527	10387.183
638.655	10394.231
638.783	10401.375
638.912	10413.240
639.040	10326.183
639.168	10318.808
639.296	10274.413
639.424	10379.269
639.552	10282.529
639.680	10333.269
639.808	10236.981
639.937	10225.231
640.065	10197.442
640.193	10184.779
640.321	10296.471
640.449	10276.298
640.577	10179.260
640.705	10181.923
640.833	10188.500
640.962	10241.856
641.090	10155.865
641.218	10150.250
641.346	10258.250
641.474	10114.904
641.602	10172.567
641.730	10135.538
641.858	10090.567
641.987	10101.875
642.115	10266.173
642.243	10140.760
642.371	10291.163
642.499	10116.827
642.627	10170.356
642.755	10070.250
642.883	10099.731
643.012	10108.798
643.140	10149.231
643.268	10125.029
643.396	10039.846
643.524	10070.606
643.652	10166.346
643.780	10056.663
643.908	10038.471
644.037	10167.029
644.165	10134.337
644.293	10261.125
644.421	10031.894
644.549	10119.269
644.677	10130.904
644.805	10039.971
644.933	10001.981
645.062	10085.279
645.190	10195.548
645.318	10093.096
645.446	9982.038
645.574	10001.692
645.702	10030.644
645.830	10033.971
645.958	9992.558
646.087	9981.635
646.215	9935.365
646.343	9932.462
646.471	10127.577
646.599	9947.240
646.727	9945.548
646.855	9949.606
646.983	9921.962
647.112	10000.106
647.240	9905.288
647.368	9962.606
647.496	9910.413
647.624	9895.827
647.752	9875.558
647.880	9854.721
648.008	9867.596
648.137	9919.510
648.265	9821.288
648.393	9881.779
648.521	9811.750
648.649	9928.519
648.777	9864.740
648.905	9790.942
649.033	9825.308
649.162	9699.779
649.290	9662.125
649.418	9692.788
649.546	9833.356
649.674	9654.548
649.802	9639.260
649.930	9613.558
650.058	9541.240
650.187	9605.135
650.315	9555.827
650.443	9580.010
650.571	9515.529
650.699	9472.913
650.827	9488.587
650.955	9423.760
651.083	9500.221
651.212	9392.740
651.340	9431.029
651.468	9345.404
651.596	9364.625
651.724	9396.865
651.852	9323.356
651.980	9332.288
652.108	9279.163
652.237	9291.317
652.365	9228.356
652.493	9239.817
652.621	9218.356
652.749	9218.913
652.877	9184.433
653.005	9202.115
653.133	9157.654
653.262	9111.279
653.390	9104.327
653.518	9233.750
653.646	9044.683
653.774	9025.404
653.902	9112.663
654.030	9041.558
654.158	8988.346
654.287	9036.663
654.415	8976.577
654.543	9020.577
654.671	8932.577
654.799	8956.212
654.927	8888.952
655.055	8866.981
655.183	8894.087
655.312	8865.279
655.440	8852.827
655.568	8821.038
655.696	8848.990
655.824	8821.452
655.952	8791.250
656.080	8703.327
656.208	8747.981
656.337	8777.500
656.465	8878.365
656.593	8683.394
656.721	8741.788
656.849	8773.635
656.977	8566.298
657.105	8617.452
657.233	8618.500
657.362	8690.394
657.490	8622.260
657.618	8591.683
657.746	8598.740
657.874	8491.923
658.002	8483.558
658.130	8419.019
658.258	8418.596
658.387	8378.058
658.515	8351.731
658.643	8363.702
658.771	8415.115
658.899	8291.635
659.027	8327.663
659.155	8309.202
659.283	8271.808
659.412	8255.413
659.540	8269.442
659.668	8303.365
659.796	8316.135
659.924	8265.260
660.052	8342.471
660.180	8224.596
660.308	8305.250
660.437	8284.375
660.565	8217.923
660.693	8113.721
660.821	8313.058
660.949	8105.010
661.077	8114.029
661.205	8256.933
661.333	8070.865
661.462	8042.529
661.590	8166.337
661.718	8058.837
661.846	8061.750
661.974	8017.587
662.102	8016.904
662.230	8017.558
662.358	7904.394
662.487	7963.923
662.615	7930.221
662.743	7933.442
662.871	7892.240
662.999	7818.452
663.127	7839.577
663.255	7821.827
663.383	7931.356
663.512	7740.952
663.640	7829.587
663.768	7814.952
663.896	7782.817
664.024	7756.894
664.152	7743.413
664.280	7814.615
664.408	7687.942
664.537	7685.221
664.665	7701.202
664.793	7667.240
664.921	7635.394
665.049	7699.615
665.177	7611.481
665.305	7648.942
665.433	7613.885
665.562	7735.077
665.690	7637.567
665.818	7736.433
665.946	7506.375
666.074	7533.856
666.202	7501.587
666.330	7479.471
666.458	7935.962
666.587	7457.865
666.715	7459.673
666.843	7436.885
666.971	7447.683
667.099	7480.452
667.227	7490.625
667.355	7499.202
667.483	7390.846
667.612	7423.827
667.740	7430.894
667.868	7360.375
667.996	7359.933
668.124	7371.308
668.252	7451.865
668.380	7330.231
668.508	7348.712
668.637	7302.029
668.765	7313.808
668.893	7293.260
669.021	7239.019
669.149	7291.846
669.277	7199.913
669.405	7328.433
669.533	7276.096
669.662	7201.913
669.790	7185.327
669.918	7227.837
670.046	7311.231
670.174	7103.115
670.302	7088.740
670.430	7053.413
670.558	7122.462
670.687	7238.721
670.815	7060.221
670.943	7100.385
671.071	6986.481
671.199	6959.615
671.327	7001.000
671.455	6995.952
671.583	6964.385
671.712	6921.260
671.840	7009.490
671.968	7080.596
672.096	7044.019
672.224	6852.404
672.352	6827.865
672.480	6798.096
672.608	6852.375
672.737	6785.865
672.865	6734.154
672.993	6734.962
673.121	6726.913
673.249	6716.221
673.377	6662.221
673.505	6644.798
673.633	6684.875
673.762	6637.192
673.890	6649.827
674.018	6655.625
674.146	6574.500
674.274	6563.942
674.402	6598.433
674.530	6536.356
674.658	6503.885
674.787	6460.692
674.915	6615.971
675.043	6453.673
675.171	6469.606
675.299	6394.606
675.427	6362.010
675.555	6370.904
675.683	6373.375
675.812	6343.481
675.940	6328.471
676.068	6248.721
676.196	6323.942
676.324	6246.635
676.452	6215.885
676.580	6163.490
676.708	6194.673
676.837	6165.558
676.965	6259.356
677.093	6305.346
677.221	6145.760
677.349	6068.279
677.477	6161.279
677.605	6022.663
677.733	6051.663
677.862	6057.837
677.990	6013.087
678.118	6079.702
678.246	5975.442
678.374	6027.510
678.502	5927.654
678.630	5889.067
678.758	5908.413
678.887	6030.163
679.015	5829.365
679.143	5808.029
679.271	5799.731
679.399	5794.587
679.527	5825.413
679.655	5851.250
679.783	5723.240
679.912	5719.327
680.040	5917.087
680.168	5696.135
680.296	5737.750
680.424	5688.933
680.552	5650.952
680.680	5640.904
680.808	5612.779
680.937	5572.038
681.065	5638.567
681.193	5539.885
681.321	5537.260
681.449	5582.644
681.577	5532.385
681.705	5492.317
681.833	5535.538
681.962	5500.077
682.090	5450.519
682.218	5470.798
682.346	5467.394
682.474	5416.587
682.602	5411.038
682.730	5449.529
682.858	5369.500
682.987	5374.721
683.115	5391.635
683.243	5367.538
683.371	5355.548
683.499	5337.721
683.627	5361.923
683.755	5306.423
683.883	5269.365
684.012	5321.144
684.140	5241.096
684.268	5270.135
684.396	5301.413
684.524	5233.798
684.652	5262.279
684.780	5253.875
684.908	5221.135
685.037	5238.087
685.165	5191.952
685.293	5257.183
685.421	5180.798
685.549	5172.635
685.677	5125.913
685.805	5159.202
685.933	5114.750
686.062	5152.067
686.190	5105.625
686.318	5091.260
686.446	5066.385
686.574	5008.202
686.702	5113.683
686.830	5022.337
686.958	5077.885
687.087	4973.769
687.215	5000.019
687.343	4982.288
687.471	5114.308
687.599	4907.683
687.727	4894.760
687.855	4889.981
687.983	4849.519
688.112	4930.644
688.240	4869.990
688.368	4878.981
688.496	4835.923
688.624	4794.308
688.752	4957.183
688.880	4802.279
689.008	4786.865
689.137	4785.837
689.265	4727.644
689.393	4724.529
689.521	4722.808
689.649	4818.212
689.777	4719.356
689.905	4772.423
690.033	4665.375
690.162	4627.875
690.290	4683.212
690.418	4600.942
690.546	4678.529
690.674	4648.615
690.802	4655.010
690.930	4617.413
691.058	4613.260
691.187	4559.250
691.315	4525.962
691.443	4526.202
691.571	4528.096
691.699	4478.048
691.827	4479.962
691.955	4472.663
692.083	4446.365
692.212	4457.894
692.340	4444.731
692.468	4482.000
692.596	4424.885
692.724	4396.913
692.852	4405.567
692.980	4418.740
693.108	4445.221
693.237	4339.317
693.365	4343.442
693.493	4315.740
693.621	4315.394
693.749	4271.144
693.877	4336.962
694.005	4240.971
694.133	4249.913
694.262	4290.067
694.390	4175.163
694.518	4226.058
694.646	4193.394
694.774	4123.933
694.902	4140.635
695.030	4132.962
695.158	4124.038
695.287	4122.827
695.415	4101.654
695.543	4086.510
695.671	4044.327
695.799	4146.529
695.927	4067.481
696.055	4037.202
696.183	3985.038
696.312	4146.490
696.440	4020.587
696.568	4009.423
696.696	3917.577
696.824	3898.644
696.952	3899.173
697.080	3889.712
697.208	3847.375
697.337	3855.413
697.465	3845.798
697.593	3805.490
697.721	3921.837
697.849	3801.356
697.977	3829.721
698.105	3844.240
698.233	3795.942
698.362	3745.702
698.490	3860.962
698.618	3699.769
698.746	3695.692
698.874	3769.038
699.002	3701.808
699.130	3713.654
699.258	3669.702
699.387	3618.673
699.515	3672.856
699.643	3662.990
699.771	3734.010
699.899	3614.038
700.027	3542.125
700.155	3624.587
700.283	3509.692
700.412	3529.298
700.540	3566.038
700.668	3602.077
700.796	3508.269
700.924	3541.798
701.052	3510.587
701.180	3510.673
701.308	3460.106
701.437	3418.913
701.565	3395.173
701.693	3453.625
701.821	3617.317
701.949	3362.298
702.077	3360.760
702.205	3426.529
702.333	3353.779
702.462	3310.442
702.590	3399.144
702.718	3280.654
702.846	3460.692
702.974	3271.298
703.102	3247.529
703.230	3284.721
703.358	3235.231
703.487	3231.933
703.615	3216.462
703.743	3190.471
703.871	3181.048
703.999	3164.404
704.127	3146.087
704.255	3116.106
704.383	3165.577
704.512	3210.058
704.640	3153.654
704.768	3237.317
704.896	3098.942
705.024	3044.567
705.152	3066.413
705.280	3112.923
705.408	3025.596
705.537	3006.702
705.665	3026.452
705.793	2993.442
705.921	2985.452
706.049	2948.462
706.177	3004.712
706.305	2952.240
706.433	2983.279
706.562	2942.596
706.690	2950.462
706.818	2947.452
706.946	2877.077
707.074	2857.019
707.202	2843.529
707.330	2852.510
707.458	2837.885
707.587	2794.279
707.715	2831.654
707.843	2865.404
707.971	2841.058
708.099	2752.356
708.227	2755.942
708.355	2765.683
708.483	2733.000
708.612	2761.404
708.740	2715.298
708.868	2698.442
708.996	2759.404
709.124	2759.144
709.252	2715.462
709.380	2723.356
709.508	2676.615
709.637	2692.673
709.765	2671.519
709.893	2711.212
710.021	2625.058
710.149	2745.683
710.277	2603.038
710.405	2627.942
710.533	2627.298
710.662	2599.442
710.790	2722.462
710.918	2580.240
711.046	2607.750
711.174	2565.337
711.302	2609.471
711.430	2557.692
711.558	2611.731
711.687	2578.490
711.815	2559.019
711.943	2529.029
712.071	2542.462
712.199	2559.529
712.327	2580.760
712.455	2538.827
712.583	2608.596
712.712	2530.567
712.840	2547.385
712.968	2517.856
713.096	2495.481
713.224	2481.721
713.352	2486.750
713.480	2473.250
713.608	2473.635
713.737	2468.135
713.865	2445.500
713.993	2463.692
714.121	2451.365
714.249	2438.788
714.377	2425.192
714.505	2441.462
714.633	2417.413
714.762	2405.221
714.890	2418.202
715.018	2404.317
715.146	2406.317
715.274	2371.856
715.402	2371.837
715.530	2367.596
715.658	2341.692
715.787	2341.394
715.915	2342.269
716.043	2341.288
716.171	2297.663
716.299	2286.692
716.427	2304.913
716.555	2312.798
716.683	2287.337
716.812	2280.269
716.940	2285.452
717.068	2277.981
717.196	2262.269
717.324	2242.625
717.452	2234.654
717.580	2246.510
717.708	2213.067
717.837	2202.404
717.965	2194.385
718.093	2213.577
718.221	2192.962
718.349	2182.663
718.477	2192.625
718.605	2181.385
718.733	2170.981
718.862	2158.856
718.990	2158.154
719.118	2157.356
719.246	2136.125
719.374	2111.500
719.502	2105.346
719.630	2119.452
719.758	2097.760
719.887	2087.212
720.015	2081.625
720.143	2074.846
720.271	2053.567
720.399	2075.875
720.527	2054.442
720.655	2041.337
720.783	2035.317
720.912	2016.740
721.040	2010.673
721.168	2018.250
721.296	1983.529
721.424	2017.135
721.552	1978.875
721.680	1967.471
721.808	1984.760
721.937	1968.471
722.065	1949.596
722.193	1948.010
722.321	1949.981
722.449	1937.519
722.577	1927.462
722.705	1904.327
722.833	1895.760
722.962	1892.885
723.090	1881.596
723.218	1861.606
723.346	1862.298
723.474	1871.260
723.602	1851.788
723.730	1849.462
723.858	1826.077
723.987	1855.433
724.115	1840.538
724.243	1828.510
724.371	1817.029
724.499	1831.721
724.627	1806.154
724.755	1797.913
724.883	1790.288
725.012	1802.548
725.140	1789.904
725.268	1773.029
725.396	1746.048
725.524	1754.163
725.652	1747.673
725.780	1739.827
725.908	1736.115
726.037	1718.048
726.165	1713.606
726.293	1694.154
726.421	1701.913
726.549	1696.404
726.677	1676.817
726.805	1674.760
726.933	1674.798
727.062	1664.625
727.190	1653.587
727.318	1641.875
727.446	1648.462
727.574	1635.385
727.702	1620.510
727.830	1638.548
727.958	1626.510
728.087	1613.452
728.215	1597.933
728.343	1592.904
728.471	1592.125
728.599	1584.721
728.727	1578.183
728.855	1579.106
728.983	1553.135
729.112	1541.269
729.240	1544.365
729.368	1540.971
729.496	1543.856
729.624	1544.971
729.752	1543.712
729.880	1524.625
730.008	1524.635
730.137	1514.913
730.265	1516.346
730.393	1505.894
730.521	1486.462
730.649	1481.385
730.777	1473.625
730.905	1469.846
731.033	1455.231
731.162	1459.173
731.290	1476.779
731.418	1454.740
731.546	1444.558
731.674	1443.115
731.802	1434.962
731.930	1438.913
732.058	1413.529
732.187	1414.000
732.315	1435.596
732.443	1416.010
732.571	1406.779
732.699	1399.865
732.827	1417.923
732.955	1406.096
733.083	1381.269
733.212	1387.308
733.340	1395.981
733.468	1377.846
733.596	1361.260
733.724	1355.471
733.852	1360.683
733.980	1352.740
734.108	1359.846
734.237	1358.904
734.365	1341.231
734.493	1328.865
734.621	1343.327
734.749	1338.500
734.877	1316.750
735.005	1310.192
735.133	1327.404
735.262	1318.019
735.390	1294.394
735.518	1309.683
735.646	1299.904
735.774	1300.327
735.902	1289.462
736.030	1286.990
736.158	1284.125
736.287	1292.115
736.415	1287.404
736.543	1262.615
736.671	1245.250
736.799	1260.788
736.927	1257.356
737.055	1260.337
737.183	1243.115
737.312	1229.721
737.440	1240.173
737.568	1230.856
737.696	1242.144
737.824	1232.808
737.952	1436.019
738.080	1222.981
738.208	1218.125
738.337	1209.962
738.465	1207.173
738.593	1195.423
738.721	1183.413
738.849	1197.394
738.977	1194.106
739.105	1199.875
739.233	1182.606
739.362	1158.683
739.490	1169.433
739.618	1161.952
739.746	1164.577
739.874	1165.481
740.002	1166.490
740.130	1132.865
740.258	1134.279
740.387	1148.510
740.515	1134.654
740.643	1124.231
740.771	1136.942
740.899	1108.587
741.027	1118.942
741.155	1119.115
741.283	1110.971
741.412	1128.942
741.540	1099.625
741.668	1099.692
741.796	1113.923
741.924	1099.702
742.052	1083.500
742.180	1094.712
742.308	1078.529
742.437	1076.154
742.565	1073.375
742.693	1074.471
742.821	1072.471
742.949	1057.837
743.077	1046.875
743.205	1050.769
743.333	1045.510
743.462	1046.750
743.590	1030.481
743.718	1028.625
743.846	1035.269
743.974	1052.808
744.102	1027.827
744.230	1015.567
744.358	1026.596
744.487	1012.135
744.615	1006.462
744.743	1008.365
744.871	997.769
744.999	998.952
745.127	1013.606
745.255	983.144
745.383	989.596
745.512	974.663
745.640	975.058
745.768	970.712
745.896	971.856
746.024	957.663
746.152	974.548
746.280	965.692
746.408	959.077
746.537	946.702
746.665	963.221
746.793	948.337
746.921	947.346
747.049	946.038
747.177	939.490
747.305	945.962
747.433	937.548
747.562	932.144
747.690	933.413
747.818	922.788
747.946	921.163
748.074	912.942
748.202	918.096
748.330	905.067
748.458	901.635
748.587	911.000
748.715	905.125
748.843	885.827
748.971	887.875
749.099	900.413
749.227	879.644
749.355	909.635
749.483	873.029
749.612	897.269
749.740	881.298
749.868	868.433
749.996	864.231
750.124	874.769
750.252	867.490
750.380	856.375
750.508	876.721
750.637	857.663
750.765	858.769
750.893	847.808
751.021	839.144
751.149	845.154
751.277	841.423
751.405	830.423
751.533	855.875
751.662	815.125
751.790	828.663
751.918	825.827
752.046	818.240
752.174	807.596
752.302	816.298
752.430	799.231
752.558	800.452
752.687	812.404
752.815	800.462
752.943	799.654
753.071	783.010
753.199	795.510
753.327	810.452
753.455	775.625
753.583	771.712
753.712	769.192
753.840	786.904
753.968	771.808
754.096	785.510
754.224	772.038
754.352	757.971
754.480	771.875
754.608	754.096
754.737	761.337
754.865	762.327
754.993	762.087
755.121	754.962
755.249	733.788
755.377	715.413
755.505	737.202
755.633	729.692
755.762	725.615
755.890	743.308
756.018	734.654
756.146	720.817
756.274	722.798
756.402	714.240
756.530	736.885
756.658	713.183
756.787	704.240
756.915	702.144
757.043	696.625
757.171	701.673
757.299	705.442
757.427	693.558
757.555	678.365
757.683	686.058
757.812	699.231
757.940	689.452
758.068	678.077
758.196	684.279
758.324	676.481
758.452	684.087
758.580	679.510
758.708	675.962
758.837	689.462
758.965	684.558
759.093	670.192
759.221	654.413
759.349	646.923
759.477	656.808
759.605	646.981
759.733	661.000
759.862	644.058
759.990	644.625
760.118	641.615
760.246	647.356
760.374	651.000
760.502	643.490
760.630	627.404
760.758	627.875
760.887	629.433
761.015	627.087
761.143	634.192
761.271	618.413
761.399	619.856
761.527	618.558
761.655	628.837
761.783	597.663
761.912	610.096
762.040	621.385
762.168	601.760
762.296	605.827
762.424	606.817
762.552	606.346
762.680	582.692
762.808	604.654
762.937	597.173
763.065	591.212
763.193	583.087
763.321	585.144
763.449	581.490
763.577	573.433
763.705	596.942
763.833	581.019
763.962	574.779
764.090	569.577
764.218	570.144
764.346	565.990
764.474	570.212
764.602	569.106
764.730	569.837
764.858	561.933
764.987	565.692
765.115	558.856
765.243	551.298
765.371	555.740
765.499	548.163
765.627	541.654
765.755	545.817
765.883	547.894
766.012	549.144
766.140	539.596
766.268	539.481
766.396	534.404
766.524	538.010
766.652	523.990
766.780	524.894
766.908	535.558
767.037	545.394
767.165	527.644
767.293	527.692
767.421	528.673
767.549	518.423
767.677	538.519
767.805	519.308
767.933	516.337
768.062	512.279
768.190	503.952
768.318	510.904
768.446	502.837
768.574	495.115
768.702	508.279
768.830	506.500
768.958	501.615
769.087	505.442
769.215	503.904
769.343	497.010
769.471	502.375
769.599	494.154
769.727	493.913
769.855	481.577
769.983	514.135
770.112	487.356
770.240	480.510
770.368	476.000
770.496	477.625
770.624	480.865
770.752	472.827
770.880	483.615
771.008	467.798
771.137	467.846
771.265	455.788
771.393	458.327
771.521	465.000
771.649	473.673
771.777	493.692
771.905	512.558
772.033	496.067
772.162	452.567
772.290	457.808
772.418	458.846
772.546	453.942
772.674	453.933
772.802	445.010
772.930	458.423
773.058	447.788
773.187	448.413
773.315	438.144
773.443	440.750
773.571	439.808
773.699	435.529
773.827	448.096
773.955	456.942
774.083	448.038
774.212	429.385
774.340	435.558
774.468	428.885
774.596	436.365
774.724	435.923
774.852	437.721
774.980	424.654
775.108	421.817
775.237	413.615
775.365	419.096
775.493	428.587
775.621	417.250
775.749	424.481
775.877	421.519
776.005	419.413
776.133	414.740
776.262	405.192
776.390	406.106
776.518	402.279
776.646	409.577
776.774	415.260
776.902	401.096
777.030	399.558
777.158	396.567
777.287	411.942
777.415	402.260
777.543	402.365
777.671	405.462
777.799	396.096
777.927	401.029
778.055	399.240
778.183	390.404
778.312	389.115
778.440	393.606
778.568	403.231
778.696	397.894
778.824	393.817
778.952	397.077
779.080	389.529
779.208	380.798
779.337	390.712
779.465	395.058
779.593	379.740
779.721	385.500
779.849	387.240
779.977	383.327
780.105	384.452
780.233	385.577
780.362	378.933
780.490	368.933
780.618	374.683
780.746	368.538
780.874	373.067
781.002	371.279
781.130	370.567
781.258	360.394
781.387	371.038
781.515	367.894
781.643	367.067
781.771	367.115
781.899	376.615
782.027	359.163
782.155	363.183
782.283	357.654
782.412	369.221
782.540	369.856
782.668	361.385
782.796	355.625
782.924	370.644
783.052	364.260
783.180	351.154
783.308	355.058
783.437	351.279
783.565	359.750
783.693	354.788
783.821	360.856
783.949	355.163
784.077	353.779
784.205	352.721
784.333	345.413
784.462	352.731
784.590	345.462
784.718	337.962
784.846	352.365
784.974	360.942
785.102	343.038
785.230	341.500
785.358	338.846
785.487	335.029
785.615	335.394
785.743	339.885
785.871	343.846
785.999	346.087
786.127	346.808
786.255	333.769
786.383	330.952
786.512	339.173
786.640	332.192
786.768	325.000
786.896	327.702
787.024	320.337
787.152	321.904
787.280	343.952
787.408	331.413
787.537	339.260
787.665	335.144
787.793	323.596
787.921	322.971
788.049	318.212
788.177	319.462
788.305	317.635
788.433	325.933
788.562	314.981
788.690	320.260
788.818	319.346
788.946	311.587
789.074	311.519
789.202	311.510
789.330	313.394
789.458	322.269
789.587	309.423
789.715	318.837
789.843	314.500
789.971	309.154
790.099	309.596
790.227	305.202
790.355	310.385
790.483	313.750
790.612	311.087
790.740	311.212
790.868	307.663
790.996	319.221
791.124	317.048
791.252	312.394
791.380	305.481
791.508	306.519
791.637	303.356
791.765	294.183
791.893	309.183
792.021	312.288
792.149	300.173
792.277	303.856
792.405	293.442
792.533	305.654
792.662	293.192
792.790	300.894
792.918	306.615
793.046	293.740
793.174	295.144
793.302	295.260
793.430	288.923
793.558	302.423
793.687	296.606
793.815	286.663
793.943	305.192
794.071	284.413
794.199	290.788
794.327	297.490
794.455	296.173
794.583	288.423
794.712	291.538
794.840	283.548
794.968	287.606
795.096	291.981
795.224	276.558
795.352	321.702
795.480	276.596
795.608	277.635
795.737	282.481
795.865	278.538
795.993	282.942
796.121	278.894
796.249	276.173
796.377	279.846
796.505	281.173
796.633	282.433
796.762	275.519
796.890	272.346
797.018	278.106
797.146	279.308
797.274	277.481
797.402	273.096
797.530	271.183
797.658	269.163
797.787	289.587
797.915	275.942
798.043	268.481
798.171	272.433
798.299	261.529
798.427	274.010
798.555	282.385
798.683	273.067
798.812	298.923
798.940	314.058
799.068	295.625
799.196	274.010
799.324	277.827
799.452	260.625
799.580	263.808
799.708	266.673
799.837	262.337
799.965	258.096
800.093	262.192
800.221	259.413
800.349	262.163
800.477	254.106
800.605	259.173
800.733	262.827
800.862	263.231
800.990	258.154
801.118	258.471
801.246	257.048
801.374	259.519
801.502	249.221
801.630	254.692
801.758	254.500
801.887	250.519
802.015	254.644
802.143	247.721
802.271	251.269
802.399	245.817
802.527	244.673
802.655	249.692
802.783	249.548
802.912	244.933
803.040	244.856
803.168	241.115
803.296	251.837
803.424	243.606
803.552	247.606
803.680	244.510
803.808	242.702
803.937	241.904
804.065	245.260
804.193	245.221
804.321	261.038
804.449	264.067
804.577	246.769
804.705	262.000
804.833	245.827
804.962	242.625
805.090	246.952
805.218	236.452
805.346	237.202
805.474	246.817
805.602	244.308
805.730	248.760
805.858	230.298
805.987	233.452
806.115	234.048
806.243	240.913
806.371	235.942
806.499	237.106
806.627	229.048
806.755	236.183
806.883	237.625
807.012	230.673
807.140	239.356
807.268	219.769
807.396	226.462
807.524	230.952
807.652	241.808
807.780	232.365
807.908	232.894
808.037	246.221
808.165	239.404
808.293	224.817
808.421	227.183
808.549	228.606
808.677	226.990
808.805	242.740
808.933	225.625
809.062	223.817
809.190	237.692
809.318	229.606
809.446	221.779
809.574	233.577
809.702	225.567
809.830	218.933
809.958	232.173
810.087	227.865
810.215	222.423
810.343	229.817
810.471	225.433
810.599	221.875
810.727	224.644
810.855	221.490
810.983	226.058
811.112	219.115
811.240	222.587
811.368	224.231
811.496	225.154
811.624	224.077
811.752	221.423
811.880	236.096
812.008	226.096
812.137	230.692
812.265	219.212
812.393	226.798
812.521	208.817
812.649	220.817
812.777	212.894
812.905	221.385
813.033	228.673
813.162	216.519
813.290	213.519
813.418	217.173
813.546	218.500
813.674	210.538
813.802	212.490
813.930	213.269
814.058	205.375
814.187	209.356
814.315	215.375
814.443	214.856
814.571	212.010
814.699	205.087
814.827	209.423
814.955	218.192
815.083	208.067
815.212	215.087
815.340	199.635
815.468	218.721
815.596	209.375
815.724	209.250
815.852	213.144
815.980	204.769
816.108	207.625
816.237	214.567
816.365	217.962
816.493	207.029
816.621	215.010
816.749	200.500
816.877	272.808
817.005	219.731
817.133	210.202
817.262	211.981
817.390	198.125
817.518	213.029
817.646	200.279
817.774	197.058
817.902	196.038
818.030	198.154
818.158	211.404
818.287	204.808
818.415	203.808
818.543	203.212
818.671	204.788
818.799	199.250
818.927	198.798
819.055	224.413
819.183	207.577
819.312	220.519
819.440	199.577
819.568	196.933
819.696	199.913
819.824	198.423
819.952	198.019
820.080	198.635
820.208	199.154
820.337	203.990
820.465	198.000
820.593	198.125
820.721	198.462
820.849	195.683
820.977	197.125
821.105	198.327
821.233	190.462
821.362	205.163
821.490	193.865
821.618	203.817
821.746	207.202
821.874	194.442
822.002	188.260
822.130	193.010
822.258	197.433
822.387	192.962
822.515	195.519
822.643	194.442
822.771	193.163
822.899	196.798
823.027	193.096
823.155	195.894
823.283	207.346
823.412	198.827
823.540	189.202
823.668	184.779
823.796	193.519
823.924	190.750
824.052	190.750
824.180	196.058
824.308	192.298
824.437	202.654
824.565	192.962
824.693	181.731
824.821	191.135
824.949	196.442
825.077	187.221
825.205	183.798
825.333	189.183
825.462	194.221
825.590	184.933
825.718	184.529
825.846	190.144
825.974	191.962
826.102	182.731
826.230	190.260
826.358	195.856
826.487	188.500
826.615	186.760
826.743	177.375
826.871	192.394
826.999	184.375
827.127	186.952
827.255	187.404
827.383	185.654
827.512	186.567
827.640	191.865
827.768	208.615
827.896	180.279
828.024	189.288
828.152	181.375
828.280	187.769
828.408	183.144
828.537	186.625
828.665	181.481
828.793	184.808
828.921	184.327
829.049	188.202
829.177	183.067
829.305	183.250
829.433	178.740
829.562	178.356
829.690	182.471
829.818	185.990
829.946	180.740
830.074	181.356
830.202	180.413
830.330	185.558
830.458	173.529
830.587	186.019
830.715	178.962
830.843	178.000
830.971	182.346
831.099	179.346
831.227	209.106
831.355	177.856
831.483	179.837
831.612	179.779
831.740	174.510
831.868	177.010
831.996	184.663
832.124	180.856
832.252	186.067
832.380	180.615
832.508	181.962
832.637	180.798
832.765	185.077
832.893	178.635
833.021	176.856
833.149	171.058
833.277	175.404
833.405	184.885
833.533	175.279
833.662	179.058
833.790	172.673
833.918	180.356
834.046	173.106
834.174	173.231
834.302	179.173
834.430	173.067
834.558	171.058
834.687	180.875
834.815	177.413
834.943	172.510
835.071	178.442
835.199	178.048
835.327	171.115
835.455	185.067
835.583	172.894
835.712	171.673
835.840	175.875
835.968	171.462
836.096	180.750
836.224	173.990
836.352	177.423
836.480	171.279
836.608	172.154
836.737	177.077
836.865	172.433
836.993	182.125
837.121	185.337
837.249	181.952
837.377	167.317
837.505	165.481
837.633	170.663
837.762	178.615
837.890	172.298
838.018	170.885
838.146	167.519
838.274	169.231
838.402	173.750
838.530	184.096
838.658	172.500
838.787	179.798
838.915	164.115
839.043	179.625
839.171	168.192
839.299	173.288
839.427	191.337
839.555	179.269
839.683	167.144
839.812	175.404
839.940	165.356
840.068	174.904
840.196	198.577
840.324	192.462
840.452	174.712
840.580	169.846
840.708	165.327
840.837	174.817
840.965	168.923
841.093	168.952
841.221	171.798
841.349	167.962
841.477	164.683
841.605	167.692
841.733	167.692
841.862	176.567
841.990	170.202
842.118	168.683
842.246	167.279
842.374	160.904
842.502	176.798
842.630	169.144
842.758	165.077
842.887	175.846
843.015	184.971
843.143	169.010
843.271	166.798
843.399	170.490
843.527	170.654
843.655	165.587
843.783	165.731
843.912	164.596
844.040	163.567
844.168	168.846
844.296	179.856
844.424	174.567
844.552	176.077
844.680	171.538
844.808	168.404
844.937	166.192
845.065	167.231
845.193	180.260
845.321	170.827
845.449	173.856
845.577	168.173
845.705	165.471
845.833	165.567
845.962	171.346
846.090	166.769
846.218	176.067
846.346	175.038
846.474	167.067
846.602	164.125
846.730	167.346
846.858	165.269
846.987	161.288
847.115	174.385
847.243	176.817
847.371	159.673
847.499	163.644
847.627	164.702
847.755	165.587
847.883	174.365
848.012	174.298
848.140	159.096
848.268	165.240
848.396	165.577
848.524	176.981
848.652	163.644
848.780	158.817
848.908	168.231
849.037	166.846
849.165	161.817
849.293	166.606
849.421	165.163
849.549	167.019
849.677	164.173
849.805	172.337
849.933	164.221
850.062	167.769
850.190	164.673
850.318	159.904
850.446	169.471
850.574	165.952
850.702	163.490
850.830	159.702
850.958	168.000
851.087	167.260
851.215	160.154
851.343	164.115
851.471	164.731
851.599	172.375
851.727	176.702
851.855	163.471
851.983	170.442
852.112	163.471
852.240	175.644
852.368	175.212
852.496	162.096
852.624	166.865
852.752	173.346
852.880	167.923
853.008	164.981
853.137	169.125
853.265	170.865
853.393	165.019
853.521	162.817
853.649	169.538
853.777	166.077
853.905	160.288
854.033	161.750
854.162	159.712
854.290	161.058
854.418	177.779
854.546	194.144
854.674	181.115
854.802	167.413
854.930	162.019
855.058	167.413
855.187	160.452
855.315	192.538
855.443	161.394
855.571	165.721
855.699	173.462
855.827	157.000
855.955	159.750
856.083	165.356
856.212	164.327
856.340	167.894
856.468	166.173
856.596	165.510
856.724	170.327
856.852	177.096
856.980	159.846
857.108	161.606
857.237	156.760
857.365	170.606
857.493	167.567
857.621	163.673
857.749	160.115
857.877	160.952
858.005	160.298
858.133	161.087
858.262	161.058
858.390	160.702
858.518	156.894
858.646	167.817
858.774	159.163
858.902	158.587
859.030	162.654
859.158	165.923
859.287	160.250
859.415	164.750
859.543	166.942
859.671	165.452
859.799	173.308
859.927	159.288
860.055	157.077
860.183	154.615
860.312	158.260
860.440	161.240
860.568	154.740
860.696	168.923
860.824	171.779
860.952	157.692
861.080	161.788
861.208	164.250
861.337	158.971
861.465	170.346
861.593	164.067
861.721	166.846
861.849	164.817
861.977	159.048
862.105	163.279
862.233	159.404
862.362	155.827
862.490	157.000
862.618	160.298
862.746	162.212
862.874	162.798
863.002	163.769
863.130	166.135
863.258	162.788
863.387	163.317
863.515	165.260
863.643	168.779
863.771	163.000
863.899	163.962
864.027	166.750
864.155	186.404
864.283	158.173
864.412	157.769
864.540	165.202
864.668	151.317
864.796	161.163
864.924	157.673
865.052	157.298
865.180	173.010
865.308	161.490
865.437	159.346
865.565	156.260
865.693	158.519
865.821	157.288
865.949	175.856
866.077	164.577
866.205	158.337
866.333	165.885
866.462	153.750
866.590	166.077
866.718	161.596
866.846	157.394
866.974	163.548
867.102	155.837
867.230	166.769
867.358	158.587
867.487	168.827
867.615	172.404
867.743	157.394
867.871	166.423
867.999	160.837
868.127	169.606
868.255	176.798
868.383	153.433
868.512	162.587
868.640	161.163
868.768	156.202
868.896	173.538
869.024	158.558
869.152	157.952
869.280	152.904
869.408	157.087
869.537	157.423
869.665	156.327
869.793	156.029
869.921	163.106
870.049	154.423
870.177	161.587
870.305	155.038
870.433	155.548
870.562	164.500
870.690	158.481
870.818	166.471
870.946	156.788
871.074	149.087
871.202	162.038
871.330	153.817
871.458	160.394
871.587	157.673
871.715	163.038
871.843	159.644
871.971	165.808
872.099	153.240
872.227	160.827
872.355	158.654
872.483	154.462
872.612	165.683
872.740	159.144
872.868	158.048
872.996	156.019
873.124	168.663
873.252	157.904
873.380	153.163
873.508	163.423
873.637	166.173
873.765	154.817
873.893	157.356
874.021	157.606
874.149	158.490
874.277	159.144
874.405	164.404
874.533	165.202
874.662	155.990
874.790	160.644
874.918	155.788
875.046	160.731
875.174	157.856
875.302	156.433
875.430	157.221
875.558	163.923
875.687	164.433
875.815	161.010
875.943	161.808
876.071	162.038
876.199	160.962
876.327	160.885
876.455	157.481
876.583	156.115
876.712	165.942
876.840	160.048
876.968	159.548
877.096	158.471
877.224	158.538
877.352	152.654
877.480	159.712
877.608	167.279
877.737	163.337
877.865	153.471
877.993	163.144
878.121	162.250
878.249	160.260
878.377	158.404
878.505	160.846
878.633	161.981
878.762	157.115
878.890	158.452
879.018	164.740
879.146	157.462
879.274	183.615
879.402	163.423
879.530	154.442
879.658	157.231
879.787	160.221
879.915	156.894
880.043	153.817
880.171	191.673
880.299	160.125
880.427	165.048
880.555	154.885
880.683	163.337
880.812	161.567
880.940	158.010
881.068	163.856
881.196	156.587
881.324	154.500
881.452	153.029
881.580	162.635
881.708	165.894
881.837	161.750
881.965	159.394
882.093	152.375
882.221	153.346
882.349	152.010
882.477	158.587
882.605	159.087
882.733	166.865
882.862	156.038
882.990	169.192
883.118	168.029
883.246	167.606
883.374	159.587
883.502	162.798
883.630	162.115
883.758	156.740
883.887	157.394
884.015	161.173
884.143	162.702
884.271	159.827
884.399	154.683
884.527	162.885
884.655	158.971
884.783	160.250
884.912	180.298
885.040	166.654
885.168	156.269
885.296	166.346
885.424	158.596
885.552	162.596
885.680	172.990
885.808	164.356
885.937	169.144
886.065	168.769
886.193	157.731
886.321	159.000
886.449	155.192
886.577	156.404
886.705	168.692
886.833	148.442
886.962	160.327
887.090	161.933
887.218	155.433
887.346	156.952
887.474	157.240
887.602	156.962
887.730	154.740
887.858	155.538
887.987	155.010
888.115	162.577
888.243	157.240
888.371	169.077
888.499	158.606
888.627	155.913
888.755	165.548
888.883	159.558
889.012	162.106
889.140	157.500
889.268	162.010
889.396	151.394
889.524	164.048
889.652	152.538
889.780	156.462
889.908	158.692
890.037	166.048
890.165	158.490
890.293	161.058
890.421	161.058
890.549	152.490
890.677	151.462
890.805	161.750
890.933	157.615
891.062	157.240
891.190	159.663
891.318	155.769
891.446	156.856
891.574	151.606
891.702	152.913
891.830	161.904
891.958	168.798
892.087	164.385
892.215	161.413
892.343	163.673
892.471	163.106
892.599	152.615
892.727	163.519
892.855	178.837
892.983	149.087
893.112	154.913
893.240	167.760
893.368	154.375
893.496	167.942
893.624	165.279
893.752	178.346
893.880	164.721
894.008	159.298
894.137	158.558
894.265	161.702
894.393	161.115
894.521	166.154
894.649	158.212
894.777	154.779
894.905	196.462
895.033	158.663
895.162	159.875
895.290	164.981
895.418	159.154
895.546	191.587
895.674	165.279
895.802	201.346
895.930	160.087
896.058	156.683
896.187	157.837
896.315	155.462
896.443	167.750
896.571	183.010
896.699	156.154
896.827	158.567
896.955	158.721
897.083	161.087
897.212	158.481
897.340	158.606
897.468	156.808
897.596	160.760
897.724	157.375
897.852	153.865
897.980	152.971
898.108	165.942
898.237	158.048
898.365	158.731
898.493	166.288
898.621	159.163
898.749	157.740
898.877	160.010
899.005	159.452
899.133	160.442
899.262	173.433
899.390	157.462
899.518	164.423
899.646	155.538
899.774	152.462
899.902	154.375
900.030	169.260
900.158	159.029
900.287	160.567
900.415	155.981
900.543	159.192
900.671	167.567
900.799	160.231
900.927	158.837
901.055	166.654
901.183	171.087
901.312	165.365
901.440	155.000
901.568	155.990
901.696	156.423
901.824	156.135
901.952	155.106
902.080	166.173
902.208	158.587
902.337	168.644
902.465	160.221
902.593	171.644
902.721	184.798
902.849	175.721
902.977	160.231
903.105	164.962
903.233	162.173
903.362	155.500
903.490	167.740
903.618	161.413
903.746	155.510
903.874	160.702
904.002	160.500
904.130	168.577
904.258	154.808
904.387	163.865
904.515	152.856
904.643	161.058
904.771	155.837
904.899	161.692
905.027	165.000
905.155	159.106
905.283	154.827
905.412	175.904
905.540	160.760
905.668	158.971
905.796	161.298
905.924	159.356
906.052	159.702
906.180	163.846
906.308	159.683
906.437	158.644
906.565	163.548
906.693	168.817
906.821	154.529
906.949	159.135
907.077	156.067
907.205	165.538
907.333	151.567
907.462	158.740
907.590	161.846
907.718	156.663
907.846	165.163
907.974	155.942
908.102	160.490
908.230	166.673
908.358	158.865
908.487	153.058
908.615	168.077
908.743	169.683
908.871	163.240
908.999	157.173
909.127	163.279
909.255	172.010
909.383	158.510
909.512	156.356
909.640	174.731
909.768	160.115
909.896	166.769
910.024	167.433
910.152	172.231
910.280	166.885
910.408	161.519
910.537	156.346
910.665	169.750
910.793	163.971
910.921	167.269
911.049	169.971
911.177	172.106
911.305	164.577
911.433	185.721
911.562	169.221
911.690	170.058
911.818	165.442
911.946	165.029
912.074	170.221
912.202	161.327
912.330	180.635
912.458	160.365
912.587	162.865
912.715	163.000
912.843	177.567
912.971	169.856
913.099	182.654
913.227	176.519
913.355	172.567
913.483	177.548
913.612	176.846
913.740	199.087
913.868	173.337
