Ref_Stop_wo_Pol_at_750.00nm_cut_at_1179.00Y_01.dat
03.07.2023
11:37:00
cut middle at Y: 1179.00
top cursor: 1231 down cursor: 1127 mean of: 104 lines , 2560 datapoints
wavelength(nm)	intensity[arb. units]
585.996	22797.279
586.124	22428.933
586.252	22400.144
586.380	22386.942
586.508	22474.510
586.637	22619.087
586.765	22625.625
586.893	22637.385
587.021	22744.894
587.149	22788.404
587.277	22855.721
587.405	22903.760
587.533	22976.875
587.662	22970.875
587.790	22933.471
587.918	22934.317
588.046	22936.702
588.174	22974.702
588.302	23027.423
588.430	23006.010
588.558	22965.577
588.687	23058.356
588.815	23042.202
588.943	23007.356
589.071	23020.769
589.199	23057.337
589.327	23058.462
589.455	23033.490
589.583	23007.538
589.712	22949.385
589.840	22920.279
589.968	23003.000
590.096	23040.183
590.224	23011.452
590.352	23139.221
590.480	23034.990
590.608	22951.327
590.737	23034.577
590.865	23055.490
590.993	22908.077
591.121	22960.279
591.249	22960.029
591.377	22947.875
591.505	23068.048
591.633	22964.394
591.762	22983.096
591.890	23012.519
592.018	23069.856
592.146	23036.385
592.274	23012.067
592.402	23051.788
592.530	23197.567
592.658	23107.221
592.787	23151.635
592.915	23185.587
593.043	23113.933
593.171	23199.827
593.299	23205.356
593.427	23217.596
593.555	23227.702
593.683	23206.740
593.812	23285.442
593.940	23324.173
594.068	23344.990
594.196	23321.788
594.324	23411.048
594.452	23631.827
594.580	23550.135
594.708	23589.462
594.837	23622.971
594.965	23705.971
595.093	23710.885
595.221	23867.942
595.349	23822.269
595.477	23900.087
595.605	23894.250
595.733	23910.067
595.862	23961.558
595.990	23913.538
596.118	24018.673
596.246	24100.308
596.374	24075.538
596.502	24095.837
596.630	24100.750
596.758	24140.394
596.887	24174.981
597.015	24211.990
597.143	24214.731
597.271	24161.115
597.399	24296.942
597.527	24235.375
597.655	24247.500
597.783	24257.981
597.912	24232.298
598.040	24290.385
598.168	24253.115
598.296	24183.490
598.424	24361.952
598.552	24204.654
598.680	24247.317
598.808	24313.327
598.937	24292.000
599.065	24261.096
599.193	24303.096
599.321	24284.192
599.449	24222.625
599.577	24212.279
599.705	24192.635
599.833	24170.644
599.962	24108.587
600.090	24166.990
600.218	24085.240
600.346	24116.462
600.474	24098.885
600.602	24098.058
600.730	24125.096
600.858	24179.010
600.987	24224.788
601.115	24109.212
601.243	24220.000
601.371	24252.385
601.499	24241.221
601.627	24311.971
601.755	24259.019
601.883	24282.817
602.012	24186.202
602.140	24290.538
602.268	24255.548
602.396	24443.702
602.524	24427.337
602.652	24542.923
602.780	24512.490
602.908	24584.990
603.037	24640.250
603.165	24694.712
603.293	24732.942
603.421	24759.260
603.549	24816.904
603.677	24872.731
603.805	24994.385
603.933	24994.731
604.062	25127.308
604.190	25245.115
604.318	25231.433
604.446	25208.894
604.574	25352.087
604.702	25367.721
604.830	25413.952
604.958	25492.442
605.087	25565.990
605.215	25714.779
605.343	25830.317
605.471	25823.837
605.599	25863.202
605.727	26045.702
605.855	26047.577
605.983	26046.087
606.112	26157.413
606.240	26147.433
606.368	26193.933
606.496	26179.567
606.624	26293.952
606.752	26217.817
606.880	26327.981
607.008	26324.337
607.137	26328.202
607.265	26439.385
607.393	26443.894
607.521	26478.587
607.649	26440.683
607.777	26415.433
607.905	26434.346
608.033	26401.394
608.162	26390.856
608.290	26397.250
608.418	26499.048
608.546	26510.365
608.674	26537.231
608.802	26391.721
608.930	26420.029
609.058	26398.750
609.187	26419.798
609.315	26330.269
609.443	26352.212
609.571	26424.923
609.699	26243.654
609.827	26289.115
609.955	26300.298
610.083	26202.452
610.212	26207.433
610.340	26170.500
610.468	26183.462
610.596	26109.423
610.724	26066.154
610.852	26145.327
610.980	26139.490
611.108	26112.029
611.237	26084.038
611.365	26105.000
611.493	26057.192
611.621	26062.740
611.749	26130.481
611.877	26112.250
612.005	26144.471
612.133	26118.500
612.262	26167.375
612.390	26213.837
612.518	26238.269
612.646	26260.269
612.774	26310.971
612.902	26325.558
613.030	26326.077
613.158	26317.798
613.287	26405.288
613.415	26327.462
613.543	26340.712
613.671	26399.154
613.799	26433.125
613.927	26511.029
614.055	26611.769
614.183	26566.058
614.312	26578.587
614.440	26758.240
614.568	26729.442
614.696	26812.019
614.824	26817.442
614.952	26877.519
615.080	26917.183
615.208	27004.471
615.337	27077.760
615.465	27038.817
615.593	27113.721
615.721	27094.769
615.849	27215.875
615.977	27228.798
616.105	27241.942
616.233	27361.760
616.362	27417.260
616.490	27454.769
616.618	27531.212
616.746	27613.990
616.874	27635.096
617.002	27703.558
617.130	27700.875
617.258	27647.837
617.387	27710.817
617.515	27765.673
617.643	27787.317
617.771	27834.923
617.899	27754.760
618.027	27834.279
618.155	27841.712
618.283	27853.433
618.412	27920.000
618.540	28029.250
618.668	27942.615
618.796	27954.625
618.924	27914.644
619.052	27946.375
619.180	27888.067
619.308	27853.529
619.437	27849.913
619.565	27894.923
619.693	27880.288
619.821	27901.317
619.949	27868.846
620.077	27867.385
620.205	27866.500
620.333	27881.106
620.462	27826.500
620.590	27898.433
620.718	27869.000
620.846	27918.183
620.974	27892.308
621.102	27888.288
621.230	27851.010
621.358	27962.798
621.487	27830.760
621.615	27798.952
621.743	27713.692
621.871	27760.615
621.999	27678.548
622.127	27688.038
622.255	27714.077
622.383	27640.865
622.512	27602.769
622.640	27612.308
622.768	27667.346
622.896	27703.846
623.024	27651.596
623.152	27585.952
623.280	27658.683
623.408	27646.038
623.537	27703.413
623.665	27563.654
623.793	27701.635
623.921	27612.471
624.049	27581.644
624.177	27561.394
624.305	27539.779
624.433	27504.529
624.562	27514.346
624.690	27605.106
624.818	27368.404
624.946	27361.135
625.074	27414.663
625.202	27364.462
625.330	27408.221
625.458	27515.654
625.587	27418.452
625.715	27437.163
625.843	27420.308
625.971	27460.885
626.099	27435.942
626.227	27411.923
626.355	27357.750
626.483	27402.260
626.612	27411.846
626.740	27478.740
626.868	27450.433
626.996	27475.519
627.124	27386.808
627.252	27385.385
627.380	27416.942
627.508	27389.192
627.637	27412.058
627.765	27510.644
627.893	27473.933
628.021	27532.135
628.149	27422.375
628.277	27514.635
628.405	27517.692
628.533	27490.192
628.662	27468.856
628.790	27629.115
628.918	27596.308
629.046	27721.288
629.174	27594.375
629.302	27692.048
629.430	27597.981
629.558	27691.087
629.687	27681.913
629.815	27727.587
629.943	27864.269
630.071	27826.788
630.199	27845.894
630.327	27844.106
630.455	27870.279
630.583	27854.625
630.712	27862.808
630.840	27941.712
630.968	27938.894
631.096	27960.692
631.224	27972.327
631.352	28098.750
631.480	28034.971
631.608	28184.625
631.737	28079.971
631.865	28139.654
631.993	28145.769
632.121	28315.635
632.249	28161.317
632.377	28178.846
632.505	28149.654
632.633	28212.904
632.762	28107.173
632.890	28167.519
633.018	28147.279
633.146	28085.067
633.274	28067.317
633.402	28145.654
633.530	28075.683
633.658	28065.837
633.787	28057.894
633.915	28031.471
634.043	28067.010
634.171	28042.433
634.299	28051.356
634.427	27957.163
634.555	28170.740
634.683	27984.202
634.812	27908.106
634.940	27814.712
635.068	27831.096
635.196	27780.500
635.324	27758.019
635.452	27728.673
635.580	27797.692
635.708	27657.442
635.837	27650.606
635.965	27597.106
636.093	27548.567
636.221	27457.308
636.349	27408.144
636.477	27327.154
636.605	27295.231
636.733	27284.856
636.862	27237.779
636.990	27197.904
637.118	27131.529
637.246	27030.029
637.374	27145.394
637.502	26901.567
637.630	26842.038
637.758	26856.663
637.887	26781.856
638.015	26860.154
638.143	26764.269
638.271	26599.163
638.399	26624.077
638.527	26579.144
638.655	26525.538
638.783	26455.875
638.912	26494.375
639.040	26363.981
639.168	26269.288
639.296	26213.894
639.424	26305.471
639.552	26261.442
639.680	26265.221
639.808	26123.144
639.937	26081.231
640.065	26124.308
640.193	26083.740
640.321	26135.913
640.449	26134.635
640.577	26017.798
640.705	26037.577
640.833	26004.096
640.962	26060.288
641.090	25890.904
641.218	25906.077
641.346	25955.913
641.474	25937.462
641.602	25864.135
641.730	25880.942
641.858	25880.010
641.987	25847.923
642.115	26006.904
642.243	25806.019
642.371	25915.202
642.499	25770.346
642.627	25775.567
642.755	25748.500
642.883	25732.596
643.012	25726.135
643.140	25778.337
643.268	25752.000
643.396	25675.760
643.524	25683.433
643.652	25775.510
643.780	25645.279
643.908	25628.298
644.037	25764.212
644.165	25735.712
644.293	25802.712
644.421	25598.096
644.549	25611.894
644.677	25614.558
644.805	25514.875
644.933	25489.798
645.062	25546.673
645.190	25656.135
645.318	25565.538
645.446	25433.010
645.574	25455.067
645.702	25512.606
645.830	25442.615
645.958	25421.163
646.087	25362.596
646.215	25352.913
646.343	25325.106
646.471	25480.288
646.599	25309.269
646.727	25303.625
646.855	25272.827
646.983	25231.567
647.112	25232.625
647.240	25201.250
647.368	25207.567
647.496	25170.702
647.624	25143.183
647.752	25069.702
647.880	25027.779
648.008	25017.683
648.137	25092.606
648.265	25025.077
648.393	25070.212
648.521	24893.260
648.649	25024.731
648.777	24915.269
648.905	24802.702
649.033	24834.212
649.162	24702.990
649.290	24587.740
649.418	24578.587
649.546	24744.067
649.674	24568.731
649.802	24520.885
649.930	24403.846
650.058	24359.115
650.187	24390.625
650.315	24302.106
650.443	24250.452
650.571	24172.644
650.699	24121.173
650.827	24031.827
650.955	24027.327
651.083	24029.067
651.212	23905.163
651.340	23904.000
651.468	23830.269
651.596	23771.606
651.724	23762.942
651.852	23653.692
651.980	23621.500
652.108	23575.481
652.237	23571.144
652.365	23475.721
652.493	23443.000
652.621	23412.942
652.749	23419.019
652.877	23347.798
653.005	23329.288
653.133	23266.019
653.262	23163.558
653.390	23119.673
653.518	23205.058
653.646	23067.288
653.774	23019.231
653.902	23083.500
654.030	22955.490
654.158	22943.115
654.287	22882.712
654.415	22842.606
654.543	22892.317
654.671	22755.923
654.799	22779.212
654.927	22694.404
655.055	22600.183
655.183	22605.221
655.312	22569.933
655.440	22513.000
655.568	22470.971
655.696	22500.923
655.824	22385.923
655.952	22366.894
656.080	22235.635
656.208	22288.481
656.337	22257.375
656.465	22402.250
656.593	22195.731
656.721	22176.538
656.849	22171.721
656.977	21954.721
657.105	21977.962
657.233	21975.827
657.362	22052.106
657.490	21949.144
657.618	21897.990
657.746	21846.317
657.874	21659.481
658.002	21588.288
658.130	21472.240
658.258	21496.538
658.387	21385.250
658.515	21367.125
658.643	21304.846
658.771	21393.712
658.899	21220.933
659.027	21235.962
659.155	21141.135
659.283	21085.077
659.412	21066.327
659.540	21012.663
659.668	21020.865
659.796	21109.490
659.924	21101.942
660.052	21100.212
660.180	21076.952
660.308	21080.712
660.437	21013.798
660.565	20902.702
660.693	20736.875
660.821	20899.269
660.949	20710.779
661.077	20715.365
661.205	20822.394
661.333	20660.365
661.462	20559.250
661.590	20634.413
661.718	20489.077
661.846	20492.673
661.974	20415.375
662.102	20396.433
662.230	20351.760
662.358	20173.798
662.487	20239.663
662.615	20240.962
662.743	20150.038
662.871	20189.885
662.999	20072.250
663.127	20027.587
663.255	20011.125
663.383	20087.817
663.512	19894.721
663.640	19910.654
663.768	19942.077
663.896	19874.615
664.024	19776.702
664.152	19803.837
664.280	19781.663
664.408	19657.433
664.537	19650.808
664.665	19643.990
664.793	19605.596
664.921	19561.048
665.049	19593.519
665.177	19462.202
665.305	19482.231
665.433	19453.115
665.562	19553.894
665.690	19417.163
665.818	19515.731
665.946	19302.769
666.074	19259.096
666.202	19226.038
666.330	19182.029
666.458	19467.183
666.587	19125.933
666.715	19088.846
666.843	19023.615
666.971	19018.048
667.099	18986.010
667.227	19025.019
667.355	18980.500
667.483	18869.875
667.612	18923.635
667.740	18866.317
667.868	18759.769
667.996	18806.269
668.124	18790.683
668.252	18862.894
668.380	18646.538
668.508	18673.538
668.637	18576.808
668.765	18575.760
668.893	18479.087
669.021	18464.087
669.149	18497.346
669.277	18361.356
669.405	18482.394
669.533	18411.067
669.662	18302.923
669.790	18291.817
669.918	18217.663
670.046	18353.538
670.174	18098.279
670.302	18097.058
670.430	18032.087
670.558	18036.692
670.687	18123.481
670.815	17897.048
670.943	17954.712
671.071	17828.683
671.199	17749.721
671.327	17769.933
671.455	17764.712
671.583	17674.029
671.712	17607.163
671.840	17644.769
671.968	17729.298
672.096	17678.288
672.224	17452.683
672.352	17436.413
672.480	17355.625
672.608	17360.952
672.737	17289.413
672.865	17224.394
672.993	17205.933
673.121	17118.481
673.249	17113.952
673.377	17003.471
673.505	16996.981
673.633	16999.202
673.762	16941.202
673.890	16917.183
674.018	16913.058
674.146	16819.510
674.274	16758.163
674.402	16784.971
674.530	16677.875
674.658	16604.654
674.787	16553.942
674.915	16644.385
675.043	16445.481
675.171	16461.519
675.299	16381.144
675.427	16289.202
675.555	16256.442
675.683	16261.654
675.812	16213.269
675.940	16142.952
676.068	16051.808
676.196	16052.596
676.324	15998.135
676.452	15901.250
676.580	15875.798
676.708	15783.471
676.837	15747.865
676.965	15850.356
677.093	15841.558
677.221	15674.808
677.349	15567.260
677.477	15650.529
677.605	15480.548
677.733	15522.606
677.862	15447.500
677.990	15424.769
678.118	15416.712
678.246	15304.471
678.374	15312.519
678.502	15195.423
678.630	15142.942
678.758	15140.019
678.887	15199.750
679.015	14983.433
679.143	14933.990
679.271	14923.413
679.399	14890.269
679.527	14842.644
679.655	14910.615
679.783	14788.125
679.912	14705.904
680.040	14827.452
680.168	14637.471
680.296	14624.769
680.424	14578.385
680.552	14500.433
680.680	14451.529
680.808	14438.923
680.937	14362.837
681.065	14388.038
681.193	14280.471
681.321	14253.779
681.449	14327.923
681.577	14214.856
681.705	14202.913
681.833	14170.106
681.962	14123.538
682.090	14041.654
682.218	14005.346
682.346	14015.952
682.474	13923.962
682.602	13939.865
682.730	13943.115
682.858	13828.721
682.987	13814.462
683.115	13806.750
683.243	13755.885
683.371	13754.404
683.499	13699.154
683.627	13695.577
683.755	13611.231
683.883	13581.462
684.012	13582.606
684.140	13522.000
684.268	13487.423
684.396	13517.298
684.524	13455.202
684.652	13450.962
684.780	13421.202
684.908	13343.106
685.037	13394.750
685.165	13330.144
685.293	13317.510
685.421	13308.240
685.549	13243.442
685.677	13146.375
685.805	13141.048
685.933	13093.183
686.062	13080.596
686.190	13021.260
686.318	13003.010
686.446	12945.462
686.574	12922.163
686.702	12934.644
686.830	12841.192
686.958	12890.317
687.087	12783.750
687.215	12764.875
687.343	12690.269
687.471	12885.596
687.599	12599.115
687.727	12602.067
687.855	12559.144
687.983	12531.212
688.112	12568.288
688.240	12450.827
688.368	12472.538
688.496	12394.077
688.624	12318.500
688.752	12495.000
688.880	12271.308
689.008	12273.279
689.137	12211.154
689.265	12156.048
689.393	12127.577
689.521	12129.058
689.649	12191.269
689.777	12082.298
689.905	12090.827
690.033	11940.971
690.162	11938.337
690.290	11959.904
690.418	11847.327
690.546	11895.202
690.674	11852.433
690.802	11834.952
690.930	11794.442
691.058	11740.827
691.187	11671.317
691.315	11646.885
691.443	11620.135
691.571	11605.769
691.699	11527.240
691.827	11460.519
691.955	11446.000
692.083	11416.875
692.212	11411.490
692.340	11406.163
692.468	11381.663
692.596	11345.587
692.724	11244.221
692.852	11274.615
692.980	11273.923
693.108	11273.000
693.237	11153.894
693.365	11101.260
693.493	11081.048
693.621	11067.221
693.749	10994.279
693.877	11022.077
694.005	10888.269
694.133	10840.731
694.262	10875.298
694.390	10772.635
694.518	10796.808
694.646	10744.115
694.774	10695.231
694.902	10608.000
695.030	10626.337
695.158	10561.885
695.287	10542.933
695.415	10526.231
695.543	10462.404
695.671	10406.038
695.799	10519.990
695.927	10361.250
696.055	10348.394
696.183	10269.385
696.312	10435.096
696.440	10261.058
696.568	10205.798
696.696	10105.913
696.824	10031.192
696.952	10042.010
697.080	10033.856
697.208	9947.029
697.337	9903.990
697.465	9906.933
697.593	9817.596
697.721	9912.462
697.849	9785.635
697.977	9774.808
698.105	9805.240
698.233	9744.510
698.362	9624.125
698.490	9783.913
698.618	9570.740
698.746	9542.981
698.874	9632.375
699.002	9519.442
699.130	9517.221
699.258	9418.817
699.387	9348.144
699.515	9357.692
699.643	9370.298
699.771	9427.692
699.899	9269.865
700.027	9202.067
700.155	9244.558
700.283	9116.038
700.412	9141.413
700.540	9152.144
700.668	9137.058
700.796	9029.452
700.924	9054.433
701.052	9020.779
701.180	9005.240
701.308	8880.394
701.437	8858.913
701.565	8814.500
701.693	8839.471
701.821	8989.971
701.949	8724.702
702.077	8754.779
702.205	8758.731
702.333	8658.337
702.462	8601.308
702.590	8663.798
702.718	8543.808
702.846	8693.317
702.974	8453.288
703.102	8463.240
703.230	8484.913
703.358	8421.923
703.487	8371.529
703.615	8330.798
703.743	8319.240
703.871	8277.846
703.999	8258.981
704.127	8213.548
704.255	8166.240
704.383	8160.125
704.512	8201.048
704.640	8148.942
704.768	8175.394
704.896	8036.010
705.024	7964.702
705.152	7944.212
705.280	7981.856
705.408	7880.663
705.537	7830.942
705.665	7820.615
705.793	7772.731
705.921	7756.029
706.049	7690.779
706.177	7713.221
706.305	7607.596
706.433	7671.067
706.562	7618.471
706.690	7607.683
706.818	7548.712
706.946	7467.077
707.074	7442.837
707.202	7408.019
707.330	7375.750
707.458	7373.529
707.587	7283.135
707.715	7324.817
707.843	7325.673
707.971	7293.077
708.099	7193.471
708.227	7173.558
708.355	7155.962
708.483	7094.404
708.612	7136.462
708.740	7033.721
708.868	7042.317
708.996	7098.615
709.124	7019.788
709.252	6964.942
709.380	6975.875
709.508	6904.913
709.637	6891.990
709.765	6889.990
709.893	6901.519
710.021	6778.567
710.149	6888.827
710.277	6743.558
710.405	6737.000
710.533	6713.837
710.662	6662.885
710.790	6782.894
710.918	6603.885
711.046	6631.865
711.174	6577.058
711.302	6619.365
711.430	6540.308
711.558	6537.606
711.687	6508.673
711.815	6459.885
711.943	6393.317
712.071	6410.615
712.199	6412.894
712.327	6440.250
712.455	6312.548
712.583	6470.490
712.712	6337.933
712.840	6339.375
712.968	6260.894
713.096	6232.885
713.224	6200.442
713.352	6170.808
713.480	6107.673
713.608	6087.452
713.737	6068.029
713.865	6128.865
713.993	6044.808
714.121	6048.356
714.249	5996.077
714.377	5969.365
714.505	5944.058
714.633	5908.673
714.762	5894.577
714.890	5880.356
715.018	5856.404
715.146	5885.731
715.274	5816.442
715.402	5811.894
715.530	5773.942
715.658	5792.346
715.787	5750.702
715.915	5811.192
716.043	5693.962
716.171	5829.827
716.299	5629.663
716.427	5699.567
716.555	5616.673
716.683	5596.692
716.812	5563.644
716.940	5548.327
717.068	5522.000
717.196	5653.827
717.324	5517.481
717.452	5455.221
717.580	5519.135
717.708	5413.663
717.837	5418.779
717.965	5427.433
718.093	5358.702
718.221	5400.462
718.349	5419.913
718.477	5318.587
718.605	5383.192
718.733	5289.683
718.862	5299.865
718.990	5230.240
719.118	5276.702
719.246	5178.288
719.374	5164.452
719.502	5185.875
719.630	5258.048
719.758	5092.433
719.887	5069.837
720.015	5112.192
720.143	5121.356
720.271	4982.885
720.399	5056.712
720.527	4988.077
720.655	5060.346
720.783	4951.423
720.912	4885.721
721.040	4913.144
721.168	4923.356
721.296	4824.481
721.424	4840.144
721.552	4809.375
721.680	4873.606
721.808	4803.202
721.937	4806.519
722.065	4805.913
722.193	4739.779
722.321	4712.952
722.449	4719.202
722.577	4642.856
722.705	4638.673
722.833	4668.375
722.962	4640.375
723.090	4582.231
723.218	4584.942
723.346	4616.808
723.474	4521.663
723.602	4482.808
723.730	4462.452
723.858	4452.433
723.987	4438.327
724.115	4433.846
724.243	4468.212
724.371	4396.471
724.499	4376.019
724.627	4342.577
724.755	4337.231
724.883	4413.933
725.012	4475.596
725.140	4296.173
725.268	4236.952
725.396	4315.096
725.524	4357.923
725.652	4208.337
725.780	4324.423
725.908	4149.317
726.037	4164.615
726.165	4170.712
726.293	4094.760
726.421	4116.346
726.549	4105.250
726.677	4091.327
726.805	4026.317
726.933	4052.385
727.062	4004.615
727.190	3981.288
727.318	3968.183
727.446	3958.481
727.574	3904.635
727.702	3916.183
727.830	3942.817
727.958	3913.058
728.087	3968.337
728.215	3988.317
728.343	3852.683
728.471	3871.692
728.599	3963.846
728.727	3813.865
728.855	3790.269
728.983	3746.673
729.112	3757.856
729.240	3734.240
729.368	3700.519
729.496	3739.346
729.624	3722.250
729.752	3643.019
729.880	3672.721
730.008	3632.365
730.137	3626.317
730.265	3600.510
730.393	3777.240
730.521	3722.452
730.649	3530.413
730.777	3483.837
730.905	3514.202
731.033	3461.683
731.162	3566.433
731.290	3536.808
731.418	3482.423
731.546	3437.923
731.674	3433.596
731.802	3383.808
731.930	3480.317
732.058	3501.135
732.187	3392.990
732.315	3403.288
732.443	3492.327
732.571	3369.423
732.699	3375.000
732.827	3365.596
732.955	3311.000
733.083	3286.067
733.212	3313.279
733.340	3239.365
733.468	3262.000
733.596	3258.308
733.724	3235.163
733.852	3248.221
733.980	3203.038
734.108	3384.106
734.237	3208.817
734.365	3162.577
734.493	3168.856
734.621	3129.250
734.749	3148.163
734.877	3134.288
735.005	3130.769
735.133	3087.029
735.262	3186.875
735.390	3071.067
735.518	3070.154
735.646	3136.894
735.774	3104.635
735.902	3128.962
736.030	3004.904
736.158	2991.288
736.287	3039.202
736.415	2991.163
736.543	2997.154
736.671	2943.183
736.799	2979.173
736.927	2957.327
737.055	3060.567
737.183	2891.452
737.312	2888.260
737.440	2878.933
737.568	2988.942
737.696	2946.827
737.824	2859.404
737.952	3129.115
738.080	2834.615
738.208	2884.125
738.337	2820.471
738.465	2836.346
738.593	2790.971
738.721	2789.596
738.849	2860.279
738.977	2766.356
739.105	2764.712
739.233	2762.913
739.362	2713.481
739.490	2710.173
739.618	2758.731
739.746	2758.067
739.874	2686.163
740.002	2704.279
740.130	2691.788
740.258	2627.192
740.387	2725.615
740.515	2650.894
740.643	2687.317
740.771	2721.212
740.899	2638.260
741.027	2596.933
741.155	2584.635
741.283	2560.788
741.412	2682.038
741.540	2609.365
741.668	2598.519
741.796	2637.933
741.924	2569.740
742.052	2633.115
742.180	2573.644
742.308	2543.000
742.437	2542.548
742.565	2562.596
742.693	2590.365
742.821	2544.635
742.949	2518.298
743.077	2518.894
743.205	2492.558
743.333	2519.644
743.462	2500.962
743.590	2488.538
743.718	2488.317
743.846	2469.837
743.974	2498.760
744.102	2448.519
744.230	2464.769
744.358	2439.798
744.487	2432.144
744.615	2408.058
744.743	2406.712
744.871	2403.644
744.999	2394.154
745.127	2388.231
745.255	2352.106
745.383	2368.894
745.512	2347.644
745.640	2328.038
745.768	2323.067
745.896	2324.788
746.024	2309.519
746.152	2316.481
746.280	2313.394
746.408	2287.683
746.537	2282.010
746.665	2284.971
746.793	2244.606
746.921	2256.327
747.049	2264.462
747.177	2245.096
747.305	2247.856
747.433	2227.837
747.562	2215.442
747.690	2221.856
747.818	2184.221
747.946	2195.192
748.074	2187.250
748.202	2188.827
748.330	2152.010
748.458	2151.538
748.587	2150.423
748.715	2160.125
748.843	2132.596
748.971	2121.365
749.099	2120.423
749.227	2119.827
749.355	2131.442
749.483	2068.231
749.612	2102.221
749.740	2077.990
749.868	2082.067
749.996	2062.904
750.124	2066.683
750.252	2037.567
750.380	2030.904
750.508	2044.702
750.637	2021.394
750.765	2014.654
750.893	1995.856
751.021	2000.337
751.149	1994.038
751.277	1982.327
751.405	1950.077
751.533	1978.856
751.662	1942.183
751.790	1951.163
751.918	1927.548
752.046	1928.837
752.174	1894.356
752.302	1901.221
752.430	1884.327
752.558	1892.096
752.687	1887.606
752.815	1883.125
752.943	1872.135
753.071	1847.971
753.199	1857.144
753.327	1866.029
753.455	1831.394
753.583	1819.856
753.712	1802.337
753.840	1816.058
753.968	1789.567
754.096	1801.846
754.224	1784.750
754.352	1767.962
754.480	1792.846
754.608	1763.587
754.737	1755.817
754.865	1758.087
754.993	1754.202
755.121	1750.115
755.249	1708.712
755.377	1687.125
755.505	1718.981
755.633	1717.096
755.762	1700.077
755.890	1693.077
756.018	1684.952
756.146	1669.683
756.274	1652.048
756.402	1659.962
756.530	1651.769
756.658	1641.894
756.787	1624.740
756.915	1613.096
757.043	1602.923
757.171	1617.202
757.299	1619.721
757.427	1588.115
757.555	1588.885
757.683	1587.933
757.812	1582.346
757.940	1563.981
758.068	1566.538
758.196	1564.769
758.324	1531.519
758.452	1551.558
758.580	1555.279
758.708	1531.865
758.837	1535.712
758.965	1556.183
759.093	1524.865
759.221	1488.375
759.349	1491.567
759.477	1495.288
759.605	1477.413
759.733	1486.394
759.862	1465.471
759.990	1482.635
760.118	1461.712
760.246	1459.183
760.374	1449.981
760.502	1444.731
760.630	1425.788
760.758	1419.135
760.887	1420.337
761.015	1416.356
761.143	1421.962
761.271	1409.846
761.399	1397.192
761.527	1406.721
761.655	1411.817
761.783	1377.481
761.912	1377.529
762.040	1373.981
762.168	1358.029
762.296	1350.250
762.424	1363.231
762.552	1361.952
762.680	1334.538
762.808	1351.760
762.937	1337.423
763.065	1325.587
763.193	1313.067
763.321	1305.000
763.449	1290.731
763.577	1290.692
763.705	1312.615
763.833	1299.615
763.962	1284.000
764.090	1272.587
764.218	1268.692
764.346	1263.202
764.474	1269.442
764.602	1256.385
764.730	1252.115
764.858	1256.135
764.987	1249.827
765.115	1240.692
765.243	1219.865
765.371	1229.933
765.499	1218.144
765.627	1211.817
765.755	1212.731
765.883	1202.135
766.012	1212.385
766.140	1194.817
766.268	1184.337
766.396	1184.279
766.524	1186.269
766.652	1162.048
766.780	1170.173
766.908	1161.519
767.037	1175.067
767.165	1153.548
767.293	1158.462
767.421	1153.269
767.549	1127.760
767.677	1157.317
767.805	1127.115
767.933	1134.625
768.062	1115.048
768.190	1115.990
768.318	1113.317
768.446	1104.692
768.574	1095.702
768.702	1104.144
768.830	1100.721
768.958	1093.250
769.087	1100.904
769.215	1080.971
769.343	1078.942
769.471	1090.817
769.599	1077.769
769.727	1069.875
769.855	1051.731
769.983	1088.192
770.112	1059.683
770.240	1043.231
770.368	1039.952
770.496	1031.894
770.624	1044.712
770.752	1031.779
770.880	1031.163
771.008	1016.538
771.137	1017.683
771.265	1008.279
771.393	1000.442
771.521	1003.471
771.649	1011.596
771.777	1032.913
771.905	1046.962
772.033	1025.346
772.162	980.683
772.290	991.308
772.418	992.798
772.546	973.404
772.674	970.394
772.802	955.760
772.930	965.894
773.058	960.904
773.187	953.183
773.315	955.000
773.443	952.875
773.571	945.423
773.699	944.587
773.827	943.981
773.955	958.163
774.083	941.298
774.212	923.567
774.340	921.981
774.468	921.481
774.596	912.846
774.724	919.933
774.852	917.981
774.980	907.750
775.108	908.548
775.237	898.702
775.365	894.346
775.493	896.250
775.621	900.337
775.749	885.125
775.877	898.923
776.005	890.808
776.133	878.481
776.262	871.788
776.390	870.529
776.518	864.288
776.646	875.865
776.774	861.875
776.902	849.394
777.030	852.615
777.158	840.442
777.287	874.048
777.415	847.750
777.543	844.913
777.671	842.337
777.799	835.933
777.927	843.260
778.055	836.692
778.183	826.702
778.312	827.269
778.440	827.990
778.568	837.260
778.696	826.029
778.824	820.952
778.952	821.702
779.080	807.788
779.208	808.721
779.337	813.154
779.465	811.702
779.593	797.471
779.721	802.606
779.849	799.106
779.977	802.279
780.105	790.558
780.233	788.413
780.362	787.913
780.490	777.144
780.618	781.260
780.746	773.067
780.874	783.000
781.002	769.837
781.130	766.827
781.258	767.394
781.387	773.212
781.515	763.740
781.643	749.048
781.771	749.433
781.899	766.529
782.027	749.048
782.155	744.779
782.283	738.154
782.412	741.808
782.540	740.769
782.668	737.260
782.796	741.663
782.924	741.885
783.052	740.144
783.180	721.077
783.308	726.500
783.437	724.740
783.565	731.260
783.693	720.933
783.821	721.837
783.949	720.058
784.077	714.558
784.205	713.971
784.333	705.038
784.462	709.923
784.590	703.192
784.718	694.692
784.846	703.779
784.974	709.115
785.102	688.962
785.230	693.452
785.358	684.337
785.487	685.817
785.615	672.096
785.743	675.712
785.871	682.029
785.999	677.452
786.127	686.481
786.255	668.423
786.383	670.683
786.512	667.990
786.640	661.788
786.768	661.856
786.896	654.375
787.024	645.288
787.152	650.712
787.280	672.308
787.408	649.038
787.537	655.875
787.665	659.096
787.793	642.058
787.921	640.327
788.049	636.038
788.177	641.308
788.305	632.788
788.433	641.942
788.562	631.260
788.690	627.760
788.818	631.788
788.946	619.010
789.074	614.933
789.202	616.452
789.330	616.413
789.458	622.894
789.587	613.038
789.715	615.154
789.843	621.087
789.971	613.990
790.099	596.212
790.227	600.000
790.355	603.827
790.483	607.221
790.612	604.606
790.740	601.798
790.868	593.519
790.996	608.452
791.124	608.067
791.252	599.327
791.380	580.740
791.508	589.712
791.637	593.212
791.765	575.952
791.893	593.606
792.021	580.202
792.149	574.577
792.277	584.808
792.405	567.096
792.533	576.529
792.662	573.442
792.790	569.125
792.918	581.010
793.046	564.385
793.174	563.644
793.302	560.317
793.430	556.365
793.558	563.462
793.687	558.952
793.815	550.038
793.943	566.760
794.071	541.500
794.199	547.183
794.327	542.654
794.455	549.087
794.583	545.587
794.712	545.106
794.840	536.308
794.968	540.606
795.096	548.404
795.224	530.125
795.352	570.500
795.480	522.606
795.608	523.231
795.737	519.817
795.865	518.885
795.993	527.875
796.121	513.673
796.249	520.529
796.377	522.481
796.505	517.452
796.633	515.183
796.762	502.404
796.890	503.375
797.018	512.385
797.146	513.260
797.274	512.077
797.402	500.077
797.530	498.856
797.658	497.798
797.787	512.673
797.915	502.952
798.043	487.500
798.171	502.058
798.299	483.260
798.427	499.567
798.555	507.125
798.683	491.548
798.812	510.760
798.940	534.279
799.068	515.683
799.196	493.067
799.324	486.606
799.452	471.808
799.580	471.885
799.708	476.087
799.837	471.529
799.965	468.692
800.093	468.769
800.221	462.077
800.349	469.654
800.477	459.933
800.605	464.202
800.733	466.269
800.862	457.375
800.990	457.606
801.118	455.269
801.246	460.856
801.374	458.827
801.502	452.798
801.630	454.558
801.758	447.404
801.887	439.029
802.015	447.923
802.143	431.135
802.271	442.760
802.399	437.212
802.527	433.913
802.655	442.577
802.783	433.923
802.912	431.106
803.040	432.548
803.168	429.346
803.296	434.173
803.424	424.894
803.552	432.760
803.680	431.894
803.808	423.279
803.937	426.212
804.065	420.442
804.193	420.606
804.321	443.606
804.449	437.654
804.577	425.115
804.705	442.779
804.833	413.635
804.962	412.904
805.090	415.740
805.218	408.673
805.346	403.490
805.474	422.913
805.602	413.827
805.730	419.452
805.858	397.346
805.987	404.894
806.115	399.587
806.243	407.702
806.371	403.798
806.499	399.327
806.627	395.587
806.755	398.490
806.883	394.654
807.012	391.596
807.140	401.654
807.268	390.462
807.396	390.000
807.524	390.865
807.652	396.808
807.780	386.712
807.908	384.269
808.037	401.904
808.165	391.885
808.293	382.269
808.421	377.558
808.549	378.740
808.677	381.240
808.805	393.817
808.933	380.894
809.062	378.394
809.190	396.365
809.318	380.798
809.446	369.471
809.574	378.183
809.702	368.856
809.830	364.625
809.958	374.548
810.087	368.731
810.215	367.433
810.343	379.413
810.471	374.808
810.599	361.058
810.727	367.779
810.855	361.731
810.983	366.731
811.112	359.827
811.240	357.942
811.368	357.606
811.496	367.577
811.624	359.212
811.752	362.067
811.880	368.375
812.008	359.740
812.137	367.673
812.265	354.452
812.393	355.904
812.521	346.760
812.649	351.875
812.777	348.365
812.905	352.135
813.033	361.048
813.162	345.923
813.290	338.894
813.418	349.962
813.546	346.731
813.674	343.644
813.802	343.788
813.930	343.010
814.058	339.913
814.187	342.260
814.315	340.240
814.443	335.885
814.571	340.519
814.699	327.250
814.827	335.423
814.955	339.087
815.083	329.452
815.212	332.702
815.340	330.529
815.468	338.288
815.596	330.298
815.724	331.058
815.852	337.087
815.980	328.096
816.108	332.442
816.237	328.942
816.365	336.740
816.493	328.529
816.621	335.904
816.749	317.798
816.877	381.962
817.005	338.173
817.133	328.731
817.262	321.885
817.390	314.337
817.518	328.279
817.646	314.808
817.774	310.635
817.902	306.692
818.030	311.962
818.158	318.038
818.287	310.433
818.415	316.048
818.543	308.971
818.671	313.635
818.799	309.788
818.927	304.971
819.055	331.606
819.183	316.413
819.312	325.798
819.440	309.077
819.568	298.404
819.696	305.471
819.824	307.317
819.952	309.240
820.080	306.490
820.208	303.048
820.337	314.298
820.465	301.250
820.593	302.798
820.721	300.385
820.849	300.500
820.977	298.135
821.105	303.298
821.233	290.298
821.362	304.269
821.490	296.875
821.618	303.750
821.746	311.144
821.874	291.923
822.002	288.904
822.130	293.308
822.258	293.327
822.387	291.808
822.515	299.212
822.643	292.606
822.771	291.558
822.899	294.865
823.027	284.548
823.155	292.375
823.283	306.952
823.412	300.154
823.540	283.923
823.668	283.288
823.796	285.327
823.924	283.183
824.052	288.221
824.180	290.394
824.308	285.673
824.437	297.462
824.565	286.356
824.693	276.808
824.821	278.317
824.949	285.933
825.077	281.519
825.205	273.683
825.333	278.567
825.462	286.077
825.590	273.106
825.718	270.615
825.846	276.894
825.974	277.913
826.102	276.394
826.230	277.087
826.358	284.798
826.487	276.683
826.615	277.423
826.743	269.404
826.871	276.952
826.999	271.894
827.127	276.202
827.255	272.981
827.383	270.442
827.512	268.644
827.640	275.471
827.768	292.740
827.896	261.654
828.024	275.202
828.152	266.625
828.280	273.058
828.408	262.087
828.537	270.788
828.665	266.942
828.793	268.413
828.921	267.087
829.049	268.231
829.177	266.856
829.305	264.635
829.433	264.721
829.562	258.740
829.690	263.529
829.818	268.058
829.946	263.317
830.074	263.000
830.202	260.240
830.330	264.231
830.458	254.625
830.587	265.923
830.715	259.346
830.843	255.298
830.971	263.212
831.099	257.808
831.227	287.308
831.355	251.750
831.483	255.462
831.612	253.173
831.740	253.212
831.868	255.298
831.996	264.077
832.124	255.529
832.252	260.394
832.380	256.077
832.508	253.423
832.637	254.106
832.765	260.663
832.893	257.567
833.021	249.558
833.149	249.394
833.277	254.673
833.405	256.519
833.533	248.346
833.662	253.702
833.790	248.327
833.918	254.923
834.046	244.529
834.174	245.077
834.302	252.548
834.430	240.587
834.558	247.038
834.687	253.587
834.815	251.048
834.943	242.587
835.071	248.962
835.199	248.308
835.327	244.413
835.455	257.827
835.583	246.202
835.712	247.135
835.840	248.135
835.968	241.067
836.096	253.692
836.224	242.144
836.352	248.077
836.480	238.933
836.608	239.250
836.737	248.712
836.865	239.288
836.993	248.865
837.121	251.750
837.249	243.433
837.377	237.269
837.505	236.375
837.633	245.106
837.762	243.615
837.890	241.038
838.018	237.615
838.146	235.923
838.274	237.817
838.402	236.567
838.530	252.308
838.658	241.827
838.787	247.317
838.915	232.154
839.043	244.106
839.171	233.423
839.299	238.144
839.427	259.442
839.555	243.510
839.683	233.413
839.812	233.856
839.940	227.317
840.068	235.779
840.196	259.067
840.324	254.308
840.452	241.673
840.580	231.798
840.708	226.077
840.837	235.279
840.965	230.740
841.093	226.260
841.221	230.865
841.349	226.327
841.477	224.385
841.605	226.788
841.733	228.615
841.862	239.308
841.990	235.875
842.118	224.423
842.246	229.837
842.374	218.942
842.502	239.788
842.630	226.106
842.758	226.365
842.887	236.250
843.015	240.510
843.143	225.269
843.271	229.625
843.399	226.269
843.527	228.163
843.655	223.577
843.783	221.827
843.912	225.106
844.040	221.010
844.168	225.865
844.296	238.971
844.424	233.240
844.552	230.067
844.680	226.183
844.808	222.567
844.937	225.212
845.065	222.298
845.193	242.519
845.321	228.115
845.449	230.625
845.577	224.462
845.705	218.365
845.833	223.077
845.962	231.404
846.090	226.019
846.218	235.010
846.346	226.625
846.474	223.192
846.602	219.712
846.730	227.788
846.858	223.913
846.987	217.846
847.115	230.712
847.243	230.163
847.371	212.375
847.499	218.606
847.627	217.856
847.755	216.240
847.883	224.846
848.012	232.221
848.140	213.308
848.268	215.375
848.396	221.115
848.524	227.798
848.652	219.327
848.780	215.115
848.908	221.452
849.037	222.452
849.165	214.010
849.293	222.981
849.421	215.163
849.549	216.221
849.677	219.567
849.805	226.990
849.933	215.577
850.062	223.615
850.190	220.404
850.318	213.365
850.446	224.385
850.574	216.317
850.702	217.298
850.830	211.183
850.958	215.856
851.087	219.865
851.215	211.596
851.343	217.808
851.471	213.000
851.599	218.769
851.727	229.096
851.855	216.471
851.983	218.067
852.112	213.808
852.240	222.019
852.368	225.827
852.496	215.856
852.624	216.298
852.752	221.606
852.880	220.885
853.008	216.558
853.137	214.077
853.265	216.635
853.393	213.990
853.521	209.596
853.649	219.183
853.777	212.365
853.905	207.125
854.033	207.481
854.162	208.317
854.290	211.865
854.418	222.971
854.546	236.673
854.674	227.769
854.802	216.788
854.930	205.269
855.058	214.038
855.187	207.317
855.315	241.596
855.443	209.750
855.571	208.154
855.699	222.240
855.827	203.192
855.955	207.115
856.083	207.548
856.212	209.942
856.340	213.519
856.468	214.452
856.596	210.808
856.724	216.673
856.852	226.269
856.980	207.981
857.108	204.913
857.237	200.606
857.365	216.356
857.493	214.644
857.621	209.692
857.749	209.452
857.877	204.750
858.005	204.317
858.133	211.481
858.262	203.990
858.390	208.865
858.518	201.856
858.646	214.606
858.774	201.115
858.902	206.385
859.030	206.337
859.158	209.606
859.287	207.721
859.415	210.058
859.543	204.971
859.671	213.846
859.799	215.750
859.927	205.067
860.055	200.798
860.183	197.769
860.312	201.087
860.440	206.606
860.568	199.567
860.696	212.288
860.824	217.606
860.952	198.625
861.080	208.365
861.208	206.615
861.337	205.240
861.465	211.990
861.593	206.837
861.721	209.260
861.849	208.558
861.977	201.740
862.105	203.365
862.233	203.712
862.362	202.202
862.490	202.846
862.618	206.942
862.746	201.865
862.874	206.365
863.002	206.567
863.130	206.615
863.258	205.490
863.387	209.904
863.515	208.067
863.643	208.952
863.771	207.356
863.899	206.981
864.027	206.106
864.155	228.365
864.283	202.538
864.412	201.663
864.540	207.096
864.668	199.240
864.796	201.587
864.924	202.750
865.052	199.260
865.180	217.846
865.308	206.163
865.437	201.135
865.565	196.808
865.693	201.250
865.821	200.875
865.949	219.635
866.077	203.096
866.205	202.894
866.333	206.971
866.462	194.269
866.590	205.548
866.718	205.029
866.846	196.846
866.974	202.423
867.102	196.558
867.230	209.644
867.358	200.346
867.487	208.558
867.615	212.808
867.743	197.250
867.871	210.529
867.999	201.413
868.127	211.106
868.255	215.558
868.383	196.125
868.512	199.788
868.640	201.173
868.768	199.019
868.896	209.404
869.024	198.808
869.152	201.683
869.280	195.394
869.408	198.606
869.537	199.010
869.665	196.452
869.793	196.529
869.921	200.519
870.049	194.712
870.177	197.269
870.305	193.865
870.433	200.231
870.562	204.404
870.690	197.144
870.818	207.692
870.946	197.269
871.074	191.154
871.202	200.327
871.330	192.673
871.458	198.317
871.587	198.462
871.715	204.115
871.843	202.462
871.971	202.423
872.099	193.596
872.227	199.663
872.355	194.894
872.483	196.356
872.612	200.769
872.740	198.731
872.868	199.577
872.996	201.981
873.124	206.971
873.252	198.106
873.380	190.625
873.508	202.856
873.637	203.298
873.765	193.913
873.893	193.971
874.021	197.269
874.149	197.029
874.277	199.452
874.405	202.808
874.533	206.298
874.662	195.279
874.790	198.856
874.918	194.529
875.046	199.087
875.174	195.808
875.302	193.298
875.430	195.327
875.558	196.587
875.687	203.654
875.815	196.375
875.943	201.356
876.071	199.202
876.199	201.125
876.327	199.067
876.455	195.894
876.583	192.115
876.712	203.385
876.840	200.019
876.968	197.471
877.096	199.144
877.224	194.385
877.352	190.173
877.480	199.250
877.608	208.010
877.737	200.788
877.865	193.510
877.993	196.519
878.121	200.029
878.249	195.875
878.377	191.154
878.505	204.712
878.633	199.019
878.762	191.067
878.890	194.115
879.018	203.663
879.146	196.952
879.274	223.846
879.402	199.394
879.530	193.654
879.658	194.760
879.787	196.010
879.915	197.048
880.043	192.683
880.171	229.606
880.299	198.798
880.427	198.827
880.555	191.029
880.683	198.337
880.812	194.683
880.940	195.029
881.068	201.115
881.196	190.865
881.324	188.481
881.452	191.471
881.580	199.038
881.708	201.221
881.837	199.837
881.965	199.788
882.093	186.635
882.221	192.183
882.349	192.923
882.477	193.942
882.605	196.260
882.733	201.779
882.862	194.385
882.990	204.885
883.118	205.096
883.246	201.154
883.374	195.769
883.502	199.788
883.630	203.981
883.758	192.433
883.887	199.029
884.015	199.240
884.143	197.404
884.271	196.269
884.399	192.423
884.527	201.558
884.655	194.837
884.783	201.635
884.912	215.683
885.040	199.760
885.168	190.250
885.296	205.327
885.424	197.173
885.552	195.856
885.680	207.019
885.808	204.462
885.937	201.702
886.065	206.587
886.193	195.115
886.321	195.577
886.449	195.471
886.577	193.587
886.705	207.019
886.833	186.865
886.962	194.971
887.090	198.327
887.218	197.010
887.346	193.538
887.474	193.077
887.602	195.654
887.730	189.442
887.858	191.125
887.987	192.212
888.115	197.000
888.243	196.490
888.371	203.875
888.499	193.904
888.627	192.683
888.755	199.558
888.883	194.606
889.012	198.875
889.140	193.240
889.268	194.990
889.396	186.875
889.524	202.692
889.652	187.894
889.780	193.894
889.908	193.750
890.037	201.981
890.165	192.125
890.293	196.644
890.421	197.269
890.549	188.394
890.677	190.750
890.805	195.971
890.933	189.279
891.062	195.962
891.190	194.106
891.318	188.625
891.446	190.663
891.574	191.538
891.702	192.702
891.830	194.144
891.958	206.596
892.087	199.712
892.215	199.894
892.343	198.952
892.471	201.346
892.599	188.865
892.727	200.000
892.855	214.952
892.983	184.173
893.112	190.913
893.240	203.971
893.368	195.154
893.496	201.567
893.624	199.298
893.752	214.202
893.880	199.904
894.008	198.115
894.137	188.625
894.265	198.481
894.393	194.788
894.521	197.587
894.649	190.087
894.777	189.327
894.905	226.663
895.033	190.837
895.162	195.250
895.290	199.433
895.418	194.808
895.546	226.635
895.674	194.712
895.802	228.413
895.930	197.010
896.058	191.327
896.187	192.846
896.315	187.144
896.443	202.308
896.571	217.269
896.699	191.327
896.827	190.615
896.955	193.058
897.083	194.962
897.212	195.721
897.340	190.144
897.468	188.606
897.596	192.740
897.724	187.173
897.852	186.846
897.980	183.010
898.108	196.471
898.237	191.942
898.365	190.019
898.493	195.760
898.621	191.019
898.749	190.904
898.877	192.346
899.005	191.010
899.133	191.183
899.262	203.827
899.390	191.269
899.518	196.990
899.646	185.923
899.774	186.269
899.902	187.923
900.030	199.885
900.158	188.827
900.287	190.856
900.415	187.548
900.543	191.808
900.671	197.654
900.799	189.337
900.927	188.240
901.055	200.663
901.183	196.981
901.312	202.894
901.440	186.481
901.568	186.981
901.696	188.702
901.824	187.577
901.952	188.337
902.080	192.625
902.208	188.202
902.337	198.962
902.465	190.913
902.593	206.327
902.721	213.779
902.849	210.644
902.977	191.808
903.105	193.846
903.233	194.115
903.362	184.962
903.490	197.952
903.618	194.058
903.746	185.567
903.874	191.346
904.002	189.096
904.130	202.173
904.258	185.038
904.387	197.654
904.515	183.240
904.643	193.481
904.771	187.365
904.899	187.471
905.027	192.519
905.155	183.221
905.283	184.375
905.412	201.885
905.540	189.548
905.668	189.010
905.796	184.712
905.924	190.000
906.052	189.923
906.180	193.894
906.308	186.183
906.437	184.750
906.565	190.692
906.693	198.144
906.821	182.442
906.949	189.000
907.077	183.154
907.205	195.231
907.333	179.221
907.462	183.510
907.590	188.337
907.718	189.606
907.846	195.798
907.974	187.000
908.102	189.654
908.230	189.654
908.358	183.442
908.487	183.221
908.615	199.096
908.743	199.596
908.871	188.221
908.999	181.798
909.127	188.404
909.255	197.462
909.383	182.404
909.512	181.077
909.640	195.933
909.768	185.173
909.896	190.452
910.024	193.904
910.152	198.010
910.280	192.567
910.408	182.798
910.537	185.779
910.665	195.519
910.793	192.125
910.921	192.875
911.049	197.346
911.177	198.298
911.305	187.894
911.433	212.702
911.562	194.260
911.690	194.692
911.818	187.144
911.946	189.260
912.074	197.231
912.202	188.067
912.330	204.865
912.458	183.346
912.587	196.010
912.715	192.404
912.843	199.644
912.971	192.788
913.099	209.606
913.227	202.260
913.355	200.067
913.483	203.827
913.612	203.038
913.740	226.087
913.868	198.596
