70_90_0_Pol_at_750.00nm_cut_at_1179.00Y_01.dat
03.07.2023
10:51:07
cut middle at Y: 1179.00
top cursor: 1231 down cursor: 1127 mean of: 104 lines , 2560 datapoints
wavelength(nm)	intensity[arb. units]
585.996	21660.779
586.124	20974.558
586.252	20949.933
586.380	21099.010
586.508	21076.048
586.637	21267.712
586.765	21232.942
586.893	21304.019
587.021	21299.010
587.149	21418.548
587.277	21366.375
587.405	21419.673
587.533	21394.375
587.662	21549.731
587.790	21432.875
587.918	21436.260
588.046	21384.712
588.174	21397.433
588.302	21387.327
588.430	21412.356
588.558	21405.231
588.687	21485.413
588.815	21364.423
588.943	21383.731
589.071	21400.231
589.199	21454.240
589.327	21426.510
589.455	21458.837
589.583	21398.538
589.712	21434.404
589.840	21359.096
589.968	21322.212
590.096	21458.779
590.224	21447.452
590.352	21472.067
590.480	21380.558
590.608	21377.192
590.737	21311.096
590.865	21427.952
590.993	21254.538
591.121	21418.740
591.249	21328.760
591.377	21331.654
591.505	21413.837
591.633	21325.000
591.762	21421.798
591.890	21361.731
592.018	21475.644
592.146	21422.788
592.274	21398.625
592.402	21387.529
592.530	21557.606
592.658	21444.596
592.787	21460.635
592.915	21444.202
593.043	21369.923
593.171	21417.865
593.299	21470.885
593.427	21448.433
593.555	21530.404
593.683	21504.538
593.812	21490.654
593.940	21503.606
594.068	21490.587
594.196	21593.894
594.324	21429.702
594.452	21753.865
594.580	21575.260
594.708	21616.962
594.837	21589.087
594.965	21736.163
595.093	21661.010
595.221	21833.875
595.349	21726.029
595.477	21693.067
595.605	21818.846
595.733	21760.894
595.862	21781.317
595.990	21813.250
596.118	21834.442
596.246	21887.394
596.374	21839.317
596.502	21807.904
596.630	21880.567
596.758	21837.692
596.887	21943.510
597.015	21799.846
597.143	21929.942
597.271	21849.577
597.399	21939.538
597.527	21822.337
597.655	21980.010
597.783	21881.596
597.912	21935.885
598.040	21935.663
598.168	21929.087
598.296	21815.615
598.424	22017.712
598.552	21914.846
598.680	21924.135
598.808	21941.000
598.937	21843.692
599.065	21920.433
599.193	21889.183
599.321	21918.962
599.449	21817.163
599.577	21833.942
599.705	21809.250
599.833	21811.904
599.962	21838.000
600.090	21847.731
600.218	21826.740
600.346	21841.519
600.474	21751.038
600.602	21754.221
600.730	21827.529
600.858	21849.462
600.987	21803.798
601.115	21758.106
601.243	21795.202
601.371	21855.712
601.499	21799.163
601.627	21844.279
601.755	21853.279
601.883	21894.846
602.012	21760.817
602.140	21834.558
602.268	21778.096
602.396	21926.663
602.524	21866.644
602.652	21993.163
602.780	21961.096
602.908	21989.288
603.037	22010.750
603.165	22043.433
603.293	21961.154
603.421	22043.587
603.549	22090.240
603.677	22049.365
603.805	22102.471
603.933	22156.625
604.062	22264.317
604.190	22277.327
604.318	22311.423
604.446	22255.894
604.574	22334.548
604.702	22355.740
604.830	22425.683
604.958	22396.240
605.087	22438.442
605.215	22536.125
605.343	22568.933
605.471	22549.317
605.599	22511.981
605.727	22596.692
605.855	22628.769
605.983	22649.346
606.112	22681.010
606.240	22694.394
606.368	22711.615
606.496	22670.548
606.624	22791.019
606.752	22696.327
606.880	22717.519
607.008	22801.442
607.137	22821.615
607.265	22837.913
607.393	22884.788
607.521	22896.731
607.649	22871.712
607.777	22737.038
607.905	22894.231
608.033	22824.567
608.162	22846.365
608.290	22849.500
608.418	22882.231
608.546	22924.904
608.674	22920.279
608.802	22813.404
608.930	22857.692
609.058	22871.096
609.187	22854.202
609.315	22913.904
609.443	22812.356
609.571	22852.346
609.699	22825.346
609.827	22938.606
609.955	22823.077
610.083	22773.577
610.212	22799.808
610.340	22750.885
610.468	22812.327
610.596	22793.692
610.724	22762.385
610.852	22798.077
610.980	22795.019
611.108	22754.250
611.237	22728.433
611.365	22766.279
611.493	22725.635
611.621	22748.846
611.749	22662.692
611.877	22724.067
612.005	22749.798
612.133	22802.260
612.262	22777.663
612.390	22800.865
612.518	22845.885
612.646	22835.990
612.774	22868.490
612.902	22807.567
613.030	22857.702
613.158	22857.038
613.287	22945.702
613.415	22798.750
613.543	22818.481
613.671	22878.644
613.799	22850.038
613.927	22855.125
614.055	23025.875
614.183	22972.087
614.312	22963.337
614.440	23024.808
614.568	23030.173
614.696	23040.385
614.824	23105.087
614.952	23052.692
615.080	23086.269
615.208	23212.625
615.337	23295.442
615.465	23163.183
615.593	23258.106
615.721	23160.740
615.849	23284.817
615.977	23306.500
616.105	23331.865
616.233	23356.817
616.362	23363.144
616.490	23283.346
616.618	23361.971
616.746	23493.981
616.874	23478.644
617.002	23439.096
617.130	23428.567
617.258	23391.865
617.387	23457.885
617.515	23465.135
617.643	23494.173
617.771	23543.808
617.899	23515.933
618.027	23559.683
618.155	23527.779
618.283	23587.327
618.412	23595.048
618.540	23706.692
618.668	23641.490
618.796	23593.077
618.924	23556.606
619.052	23589.115
619.180	23605.808
619.308	23559.712
619.437	23488.750
619.565	23616.567
619.693	23534.952
619.821	23645.385
619.949	23555.096
620.077	23589.846
620.205	23661.221
620.333	23694.529
620.462	23606.798
620.590	23631.548
620.718	23672.683
620.846	23647.029
620.974	23626.106
621.102	23631.942
621.230	23688.760
621.358	23753.231
621.487	23718.529
621.615	23649.933
621.743	23567.413
621.871	23668.183
621.999	23598.875
622.127	23585.548
622.255	23552.240
622.383	23602.385
622.512	23576.702
622.640	23556.394
622.768	23530.990
622.896	23655.048
623.024	23598.394
623.152	23577.731
623.280	23609.260
623.408	23624.135
623.537	23701.750
623.665	23609.538
623.793	23636.087
623.921	23636.740
624.049	23546.308
624.177	23607.250
624.305	23475.000
624.433	23517.913
624.562	23591.962
624.690	23673.683
624.818	23597.875
624.946	23564.192
625.074	23494.673
625.202	23518.000
625.330	23522.010
625.458	23659.452
625.587	23540.837
625.715	23564.096
625.843	23604.894
625.971	23594.260
626.099	23619.298
626.227	23589.885
626.355	23512.990
626.483	23561.106
626.612	23536.827
626.740	23568.192
626.868	23518.327
626.996	23681.433
627.124	23542.048
627.252	23531.962
627.380	23594.933
627.508	23529.721
627.637	23534.933
627.765	23654.577
627.893	23568.442
628.021	23657.144
628.149	23553.327
628.277	23664.587
628.405	23614.731
628.533	23624.673
628.662	23596.096
628.790	23766.577
628.918	23683.769
629.046	23776.875
629.174	23653.221
629.302	23692.904
629.430	23725.154
629.558	23737.875
629.687	23681.558
629.815	23755.615
629.943	23831.231
630.071	23747.010
630.199	23795.500
630.327	23842.596
630.455	23768.250
630.583	23835.413
630.712	23826.019
630.840	23828.519
630.968	23791.788
631.096	23830.452
631.224	23799.269
631.352	23919.885
631.480	23917.567
631.608	24061.308
631.737	23878.548
631.865	24014.577
631.993	23976.000
632.121	24072.115
632.249	23945.231
632.377	23869.683
632.505	23931.923
632.633	24059.394
632.762	23932.808
632.890	23963.625
633.018	23950.952
633.146	23924.500
633.274	23978.260
633.402	24007.144
633.530	23920.404
633.658	23930.375
633.787	23920.327
633.915	23969.471
634.043	23953.394
634.171	23939.923
634.299	23965.548
634.427	23933.385
634.555	24204.433
634.683	23951.394
634.812	24018.106
634.940	23933.019
635.068	23969.288
635.196	23890.038
635.324	23806.462
635.452	23883.913
635.580	23985.548
635.708	23859.635
635.837	23884.558
635.965	23889.337
636.093	23811.731
636.221	23818.115
636.349	23762.019
636.477	23721.519
636.605	23773.500
636.733	23724.740
636.862	23711.663
636.990	23766.904
637.118	23702.000
637.246	23629.250
637.374	23803.558
637.502	23582.269
637.630	23684.760
637.758	23569.644
637.887	23538.260
638.015	23663.837
638.143	23620.558
638.271	23494.721
638.399	23508.962
638.527	23472.221
638.655	23455.125
638.783	23549.298
638.912	23456.654
639.040	23363.173
639.168	23304.413
639.296	23420.644
639.424	23424.846
639.552	23286.413
639.680	23329.173
639.808	23300.837
639.937	23284.673
640.065	23287.385
640.193	23362.317
640.321	23369.760
640.449	23371.144
640.577	23285.913
640.705	23256.308
640.833	23255.654
640.962	23342.567
641.090	23202.865
641.218	23268.192
641.346	23297.663
641.474	23273.567
641.602	23278.913
641.730	23204.712
641.858	23237.183
641.987	23246.404
642.115	23343.750
642.243	23318.779
642.371	23373.798
642.499	23262.385
642.627	23311.942
642.755	23276.654
642.883	23271.558
643.012	23216.750
643.140	23369.365
643.268	23336.567
643.396	23269.750
643.524	23298.019
643.652	23337.106
643.780	23246.990
643.908	23344.365
644.037	23379.606
644.165	23369.740
644.293	23470.356
644.421	23281.308
644.549	23447.423
644.677	23367.356
644.805	23332.317
644.933	23338.308
645.062	23293.038
645.190	23457.952
645.318	23307.385
645.446	23332.202
645.574	23321.327
645.702	23372.346
645.830	23345.288
645.958	23222.548
646.087	23264.702
646.215	23255.019
646.343	23292.385
646.471	23341.990
646.599	23193.548
646.727	23170.606
646.855	23277.558
646.983	23254.779
647.112	23296.000
647.240	23239.163
647.368	23250.317
647.496	23187.702
647.624	23180.183
647.752	23199.981
647.880	23135.442
648.008	23216.433
648.137	23211.683
648.265	23086.942
648.393	23138.692
648.521	23031.865
648.649	23300.308
648.777	23094.279
648.905	23081.779
649.033	23119.298
649.162	23034.442
649.290	22864.885
649.418	22959.894
649.546	23077.663
649.674	22959.279
649.802	22823.452
649.930	22839.692
650.058	22777.692
650.187	22831.865
650.315	22791.115
650.443	22769.808
650.571	22678.442
650.699	22672.192
650.827	22712.587
650.955	22622.183
651.083	22719.385
651.212	22527.971
651.340	22531.817
651.468	22522.308
651.596	22551.760
651.724	22539.471
651.852	22486.038
651.980	22501.087
652.108	22461.019
652.237	22473.615
652.365	22426.942
652.493	22385.663
652.621	22308.981
652.749	22267.163
652.877	22280.635
653.005	22279.240
653.133	22310.029
653.262	22215.087
653.390	22155.933
653.518	22314.913
653.646	22174.077
653.774	22103.365
653.902	22191.952
654.030	22039.692
654.158	22021.875
654.287	22047.490
654.415	21930.942
654.543	22037.990
654.671	21983.933
654.799	21908.760
654.927	21947.760
655.055	21896.058
655.183	21833.846
655.312	21842.221
655.440	21730.635
655.568	21746.529
655.696	21798.279
655.824	21796.192
655.952	21758.173
656.080	21617.144
656.208	21680.202
656.337	21719.865
656.465	21862.577
656.593	21623.750
656.721	21661.692
656.849	21692.990
656.977	21417.154
657.105	21471.837
657.233	21535.538
657.362	21488.212
657.490	21510.635
657.618	21377.221
657.746	21508.760
657.874	21338.990
658.002	21247.087
658.130	21222.577
658.258	21224.788
658.387	21173.163
658.515	21187.827
658.643	21191.894
658.771	21188.942
658.899	21050.750
659.027	21074.663
659.155	21019.663
659.283	20955.010
659.412	21026.644
659.540	20956.058
659.668	21086.462
659.796	21027.577
659.924	21061.933
660.052	21108.548
660.180	21009.269
660.308	21063.827
660.437	21017.365
660.565	20965.981
660.693	20939.846
660.821	21041.308
660.949	20827.260
661.077	20885.962
661.205	20993.385
661.333	20847.067
661.462	20758.221
661.590	20772.462
661.718	20708.144
661.846	20771.779
661.974	20787.250
662.102	20704.317
662.230	20660.885
662.358	20638.221
662.487	20655.010
662.615	20526.788
662.743	20585.452
662.871	20513.962
662.999	20517.413
663.127	20499.625
663.255	20567.846
663.383	20599.567
663.512	20402.154
663.640	20431.529
663.768	20433.769
663.896	20369.490
664.024	20399.337
664.152	20362.837
664.280	20426.808
664.408	20293.827
664.537	20310.942
664.665	20270.154
664.793	20292.327
664.921	20214.135
665.049	20342.135
665.177	20243.077
665.305	20236.962
665.433	20238.029
665.562	20367.288
665.690	20197.404
665.818	20260.481
665.946	20124.346
666.074	20075.577
666.202	20138.644
666.330	20035.913
666.458	20438.875
666.587	19993.971
666.715	19933.288
666.843	19944.115
666.971	20009.875
667.099	19992.163
667.227	20002.058
667.355	19976.163
667.483	19938.548
667.612	19950.250
667.740	19803.183
667.868	19874.923
667.996	19760.356
668.124	19813.202
668.252	19847.875
668.380	19833.250
668.508	19831.596
668.637	19734.038
668.765	19701.288
668.893	19646.183
669.021	19607.952
669.149	19644.087
669.277	19548.202
669.405	19618.606
669.533	19636.490
669.662	19495.317
669.790	19503.683
669.918	19508.375
670.046	19556.731
670.174	19398.490
670.302	19379.846
670.430	19308.673
670.558	19352.010
670.687	19426.769
670.815	19249.260
670.943	19252.606
671.071	19128.029
671.199	19127.115
671.327	19135.250
671.455	19127.606
671.583	19093.654
671.712	19016.144
671.840	19016.135
671.968	19151.510
672.096	19015.712
672.224	18828.913
672.352	18866.471
672.480	18786.385
672.608	18756.567
672.737	18711.356
672.865	18629.990
672.993	18571.240
673.121	18591.154
673.249	18504.106
673.377	18531.788
673.505	18445.712
673.633	18475.356
673.762	18431.673
673.890	18336.442
674.018	18399.279
674.146	18310.865
674.274	18287.981
674.402	18304.712
674.530	18166.087
674.658	18088.567
674.787	18075.721
674.915	18186.337
675.043	18088.385
675.171	17980.769
675.299	17895.490
675.427	17891.096
675.555	17856.337
675.683	17827.154
675.812	17721.731
675.940	17719.990
676.068	17664.067
676.196	17681.212
676.324	17512.529
676.452	17482.731
676.580	17417.971
676.708	17413.788
676.837	17344.365
676.965	17432.856
677.093	17499.452
677.221	17269.269
677.349	17133.683
677.477	17221.337
677.605	17155.875
677.733	17029.048
677.862	17057.077
677.990	17032.413
678.118	17007.577
678.246	16955.712
678.374	16922.635
678.502	16829.250
678.630	16806.798
678.758	16781.519
678.887	16841.596
679.015	16626.115
679.143	16585.452
679.271	16566.038
679.399	16509.837
679.527	16494.490
679.655	16578.654
679.783	16385.423
679.912	16383.673
680.040	16485.962
680.168	16256.933
680.296	16235.433
680.424	16215.644
680.552	16171.029
680.680	16144.644
680.808	16040.135
680.937	16049.115
681.065	15998.865
681.193	15928.663
681.321	15936.510
681.449	15941.779
681.577	15879.019
681.705	15880.519
681.833	15883.308
681.962	15759.894
682.090	15675.433
682.218	15726.356
682.346	15677.673
682.474	15605.260
682.602	15594.913
682.730	15621.308
682.858	15502.337
682.987	15513.865
683.115	15484.067
683.243	15468.375
683.371	15410.163
683.499	15341.346
683.627	15385.712
683.755	15313.413
683.883	15324.231
684.012	15307.125
684.140	15182.375
684.268	15243.606
684.396	15227.846
684.524	15189.087
684.652	15185.058
684.780	15145.827
684.908	15168.721
685.037	15181.356
685.165	15061.904
685.293	15084.587
685.421	15094.471
685.549	15023.202
685.677	14940.144
685.805	15019.288
685.933	14933.048
686.062	14893.606
686.190	14888.452
686.318	14833.385
686.446	14835.010
686.574	14763.904
686.702	14799.510
686.830	14702.471
686.958	14748.298
687.087	14669.019
687.215	14678.654
687.343	14619.779
687.471	14769.952
687.599	14491.519
687.727	14491.962
687.855	14451.981
687.983	14418.298
688.112	14429.096
688.240	14361.529
688.368	14385.827
688.496	14239.125
688.624	14250.087
688.752	14403.779
688.880	14249.298
689.008	14168.942
689.137	14205.952
689.265	14087.365
689.393	14093.702
689.521	14050.413
689.649	14127.231
689.777	14005.846
689.905	14035.519
690.033	13918.115
690.162	13868.625
690.290	13860.010
690.418	13822.837
690.546	13799.683
690.674	13776.962
690.802	13711.106
690.930	13683.923
691.058	13638.269
691.187	13572.375
691.315	13509.163
691.443	13486.279
691.571	13487.962
691.699	13416.683
691.827	13383.125
691.955	13328.731
692.083	13288.404
692.212	13243.462
692.340	13230.596
692.468	13213.375
692.596	13158.298
692.724	13069.029
692.852	13080.183
692.980	13035.183
693.108	13026.933
693.237	12901.337
693.365	12856.856
693.493	12804.538
693.621	12758.952
693.749	12694.894
693.877	12752.212
694.005	12621.481
694.133	12547.827
694.262	12600.962
694.390	12467.212
694.518	12463.269
694.646	12405.106
694.774	12323.231
694.902	12291.115
695.030	12253.635
695.158	12200.663
695.287	12176.990
695.415	12125.269
695.543	12111.510
695.671	11966.183
695.799	12108.875
695.927	11929.442
696.055	11910.423
696.183	11779.981
696.312	11945.423
696.440	11762.615
696.568	11780.221
696.696	11648.298
696.824	11543.183
696.952	11566.327
697.080	11519.490
697.208	11416.442
697.337	11394.490
697.465	11365.827
697.593	11276.317
697.721	11353.683
697.849	11217.731
697.977	11206.385
698.105	11220.712
698.233	11130.788
698.362	11018.250
698.490	11117.827
698.618	10953.865
698.746	10906.375
698.874	10945.173
699.002	10870.942
699.130	10864.654
699.258	10776.635
699.387	10683.019
699.515	10729.615
699.643	10644.606
699.771	10668.875
699.899	10526.308
700.027	10491.365
700.155	10529.279
700.283	10342.596
700.412	10333.750
700.540	10349.558
700.668	10397.615
700.796	10239.712
700.924	10242.942
701.052	10200.346
701.180	10165.250
701.308	10049.817
701.437	10028.106
701.565	9989.327
701.693	9974.317
701.821	10105.894
701.949	9851.894
702.077	9796.606
702.205	9857.115
702.333	9743.740
702.462	9669.087
702.590	9703.471
702.718	9585.798
702.846	9717.144
702.974	9516.846
703.102	9449.885
703.230	9461.019
703.358	9368.769
703.487	9344.413
703.615	9287.529
703.743	9256.740
703.871	9190.923
703.999	9174.308
704.127	9119.567
704.255	9054.288
704.383	9046.163
704.512	9083.231
704.640	8985.490
704.768	9032.365
704.896	8873.865
705.024	8800.308
705.152	8776.481
705.280	8807.375
705.408	8697.067
705.537	8654.144
705.665	8615.971
705.793	8574.298
705.921	8529.654
706.049	8462.067
706.177	8474.125
706.305	8398.952
706.433	8421.904
706.562	8356.260
706.690	8346.404
706.818	8312.731
706.946	8206.250
707.074	8145.894
707.202	8092.154
707.330	8106.452
707.458	8026.760
707.587	7990.808
707.715	7966.788
707.843	7973.606
707.971	7982.000
708.099	7858.894
708.227	7804.827
708.355	7809.135
708.483	7732.442
708.612	7721.442
708.740	7625.952
708.868	7632.865
708.996	7677.529
709.124	7628.769
709.252	7558.067
709.380	7536.125
709.508	7437.933
709.637	7468.981
709.765	7414.308
709.893	7434.462
710.021	7338.000
710.149	7447.423
710.277	7272.615
710.405	7251.115
710.533	7234.279
710.662	7176.202
710.790	7296.548
710.918	7112.385
711.046	7155.250
711.174	7091.519
711.302	7112.346
711.430	7035.865
711.558	7056.288
711.687	7000.779
711.815	6932.308
711.943	6910.644
712.071	6869.788
712.199	6909.923
712.327	6914.010
712.455	6813.721
712.583	6932.317
712.712	6775.096
712.840	6768.135
712.968	6689.288
713.096	6679.750
713.224	6634.288
713.352	6605.788
713.480	6542.308
713.608	6498.048
713.737	6492.173
713.865	6529.288
713.993	6482.779
714.121	6448.702
714.249	6364.567
714.377	6348.673
714.505	6327.481
714.633	6317.712
714.762	6300.067
714.890	6268.212
715.018	6243.798
715.146	6255.115
715.274	6162.702
715.402	6158.481
715.530	6137.154
715.658	6147.183
715.787	6081.288
715.915	6147.894
716.043	6026.279
716.171	6123.865
716.299	5965.808
716.427	6006.962
716.555	5910.135
716.683	5913.375
716.812	5868.192
716.940	5837.837
717.068	5799.250
717.196	5910.990
717.324	5783.587
717.452	5759.712
717.580	5782.500
717.708	5659.923
717.837	5679.846
717.965	5696.635
718.093	5622.029
718.221	5658.529
718.349	5626.769
718.477	5555.875
718.605	5617.913
718.733	5518.442
718.862	5532.288
718.990	5428.558
719.118	5494.625
719.246	5388.462
719.374	5363.510
719.502	5391.885
719.630	5443.471
719.758	5291.548
719.887	5270.298
720.015	5280.702
720.143	5293.077
720.271	5166.337
720.399	5229.654
720.527	5157.990
720.655	5209.183
720.783	5085.452
720.912	5066.837
721.040	5056.279
721.168	5055.788
721.296	4969.010
721.424	4974.356
721.552	4932.183
721.680	4978.212
721.808	4909.769
721.937	4869.827
722.065	4899.356
722.193	4829.817
722.321	4819.404
722.449	4810.577
722.577	4749.654
722.705	4716.038
722.833	4712.788
722.962	4697.442
723.090	4657.192
723.218	4614.923
723.346	4659.183
723.474	4572.067
723.602	4555.269
723.730	4519.423
723.858	4505.769
723.987	4514.144
724.115	4457.837
724.243	4476.933
724.371	4415.788
724.499	4392.721
724.627	4374.913
724.755	4353.337
724.883	4399.481
725.012	4449.663
725.140	4290.567
725.268	4218.644
725.396	4264.769
725.524	4301.740
725.652	4158.740
725.780	4229.308
725.908	4105.135
726.037	4094.596
726.165	4084.346
726.293	4046.260
726.421	4044.731
726.549	4039.115
726.677	4009.096
726.805	3946.125
726.933	3952.481
727.062	3921.442
727.190	3889.529
727.318	3864.202
727.446	3860.558
727.574	3818.365
727.702	3808.077
727.830	3830.231
727.958	3800.029
728.087	3824.279
728.215	3843.212
728.343	3729.375
728.471	3718.894
728.599	3808.558
728.727	3651.308
728.855	3656.125
728.983	3604.856
729.112	3593.683
729.240	3562.644
729.368	3537.865
729.496	3554.837
729.624	3513.038
729.752	3465.779
729.880	3484.885
730.008	3424.375
730.137	3409.990
730.265	3352.058
730.393	3477.375
730.521	3430.721
730.649	3276.615
730.777	3215.067
730.905	3232.077
731.033	3200.365
731.162	3296.837
731.290	3276.779
731.418	3218.519
731.546	3177.413
731.674	3171.404
731.802	3138.750
731.930	3229.413
732.058	3226.962
732.187	3152.288
732.315	3173.240
732.443	3240.721
732.571	3179.692
732.699	3150.942
732.827	3171.269
732.955	3117.798
733.083	3095.933
733.212	3091.173
733.340	3021.202
733.468	3024.952
733.596	3045.808
733.724	3006.077
733.852	3022.404
733.980	3003.750
734.108	3073.663
734.237	2981.788
734.365	2966.875
734.493	2952.808
734.621	2945.106
734.749	2934.192
734.877	2920.769
735.005	2901.192
735.133	2898.087
735.262	2919.596
735.390	2861.846
735.518	2865.692
735.646	2857.654
735.774	2849.067
735.902	2843.125
736.030	2803.288
736.158	2806.837
736.287	2820.817
736.415	2801.240
736.543	2755.808
736.671	2722.375
736.799	2739.394
736.927	2740.894
737.055	2752.115
737.183	2695.192
737.312	2679.462
737.440	2693.202
737.568	2680.288
737.696	2669.202
737.824	2662.269
737.952	2875.644
738.080	2611.058
738.208	2626.385
738.337	2603.606
738.465	2600.856
738.593	2568.663
738.721	2556.067
738.849	2560.712
738.977	2530.240
739.105	2535.721
739.233	2521.327
739.362	2503.067
739.490	2485.990
739.618	2491.500
739.746	2466.288
739.874	2436.394
740.002	2451.298
740.130	2418.144
740.258	2405.962
740.387	2415.952
740.515	2409.596
740.643	2375.808
740.771	2405.192
740.899	2354.962
741.027	2338.712
741.155	2348.279
741.283	2321.096
741.412	2347.212
741.540	2306.173
741.668	2286.058
741.796	2297.433
741.924	2278.019
742.052	2277.423
742.180	2256.019
742.308	2224.481
742.437	2225.231
742.565	2228.212
742.693	2220.904
742.821	2202.558
742.949	2170.808
743.077	2159.712
743.205	2146.577
743.333	2146.510
743.462	2134.240
743.590	2113.144
743.718	2116.298
743.846	2103.779
743.974	2118.933
744.102	2078.471
744.230	2080.365
744.358	2064.673
744.487	2062.010
744.615	2035.115
744.743	2035.788
744.871	2020.865
744.999	2008.423
745.127	1995.067
745.255	1982.212
745.383	1980.798
745.512	1959.837
745.640	1938.808
745.768	1948.500
745.896	1953.183
746.024	1920.010
746.152	1925.115
746.280	1909.144
746.408	1900.375
746.537	1892.558
746.665	1886.933
746.793	1868.779
746.921	1859.077
747.049	1852.817
747.177	1836.154
747.305	1847.779
747.433	1824.375
747.562	1817.163
747.690	1810.971
747.818	1794.894
747.946	1781.029
748.074	1767.462
748.202	1766.010
748.330	1750.202
748.458	1745.779
748.587	1740.365
748.715	1749.365
748.843	1708.375
748.971	1702.865
749.099	1709.596
749.227	1696.779
749.355	1716.798
749.483	1655.135
749.612	1690.010
749.740	1664.538
749.868	1670.567
749.996	1649.519
750.124	1651.058
750.252	1618.942
750.380	1633.654
750.508	1622.769
750.637	1601.692
750.765	1610.827
750.893	1591.260
751.021	1574.625
751.149	1583.029
751.277	1566.644
751.405	1545.173
751.533	1553.423
751.662	1533.048
751.790	1539.894
751.918	1526.788
752.046	1513.683
752.174	1506.779
752.302	1491.644
752.430	1475.808
752.558	1475.231
752.687	1468.106
752.815	1472.558
752.943	1453.625
753.071	1450.279
753.199	1456.529
753.327	1457.933
753.455	1430.731
753.583	1414.837
753.712	1396.856
753.840	1424.558
753.968	1400.356
754.096	1387.279
754.224	1397.606
754.352	1370.942
754.480	1385.635
754.608	1369.096
754.737	1359.240
754.865	1361.250
754.993	1358.990
755.121	1351.125
755.249	1317.500
755.377	1296.538
755.505	1318.029
755.633	1312.077
755.762	1292.519
755.890	1300.067
756.018	1279.173
756.146	1268.529
756.274	1260.933
756.402	1256.683
756.530	1265.356
756.658	1255.990
756.787	1232.933
756.915	1231.577
757.043	1216.183
757.171	1215.183
757.299	1228.606
757.427	1195.865
757.555	1195.827
757.683	1193.981
757.812	1202.260
757.940	1178.933
758.068	1164.317
758.196	1164.587
758.324	1161.240
758.452	1157.144
758.580	1141.337
758.708	1136.933
758.837	1150.865
758.965	1152.596
759.093	1132.769
759.221	1103.990
759.349	1098.731
759.477	1105.673
759.605	1089.019
759.733	1107.462
759.862	1077.163
759.990	1081.625
760.118	1079.471
760.246	1086.010
760.374	1072.327
760.502	1063.077
760.630	1050.577
760.758	1045.442
760.887	1038.923
761.015	1023.279
761.143	1047.269
761.271	1025.269
761.399	1010.663
761.527	1018.038
761.655	1022.692
761.783	993.010
761.912	991.490
762.040	1002.423
762.168	971.356
762.296	977.740
762.424	982.317
762.552	972.548
762.680	949.615
762.808	978.298
762.937	963.904
763.065	941.846
763.193	944.923
763.321	935.019
763.449	922.077
763.577	914.048
763.705	930.404
763.833	928.490
763.962	915.538
764.090	898.817
764.218	899.606
764.346	889.000
764.474	890.779
764.602	883.183
764.730	886.798
764.858	880.144
764.987	875.115
765.115	864.519
765.243	852.346
765.371	854.779
765.499	854.058
765.627	849.096
765.755	848.231
765.883	851.462
766.012	834.817
766.140	827.096
766.268	831.356
766.396	832.221
766.524	822.683
766.652	807.692
766.780	817.548
766.908	815.038
767.037	820.731
767.165	807.327
767.293	804.481
767.421	799.279
767.549	786.308
767.677	808.558
767.805	784.615
767.933	777.798
768.062	766.654
768.190	766.490
768.318	763.788
768.446	763.817
768.574	756.260
768.702	755.971
768.830	753.452
768.958	745.962
769.087	758.452
769.215	744.221
769.343	739.106
769.471	745.010
769.599	743.010
769.727	732.798
769.855	714.981
769.983	756.433
770.112	717.250
770.240	705.654
770.368	709.817
770.496	705.952
770.624	710.596
770.752	693.404
770.880	707.587
771.008	687.096
771.137	689.808
771.265	675.385
771.393	675.394
771.521	674.596
771.649	687.817
771.777	708.423
771.905	715.288
772.033	704.731
772.162	654.875
772.290	660.038
772.418	662.548
772.546	655.394
772.674	658.010
772.802	645.144
772.930	663.750
773.058	648.606
773.187	647.125
773.315	635.740
773.443	633.087
773.571	639.029
773.699	634.750
773.827	641.567
773.955	641.221
774.083	632.962
774.212	613.038
774.340	616.462
774.468	615.115
774.596	612.529
774.724	621.683
774.852	614.865
774.980	613.010
775.108	605.288
775.237	598.740
775.365	596.423
775.493	598.423
775.621	593.808
775.749	598.615
775.877	607.010
776.005	598.163
776.133	579.452
776.262	586.308
776.390	579.260
776.518	574.962
776.646	584.635
776.774	568.413
776.902	575.894
777.030	564.846
777.158	564.067
777.287	576.731
777.415	560.029
777.543	563.183
777.671	566.038
777.799	559.404
777.927	552.567
778.055	556.000
778.183	550.596
778.312	547.865
778.440	544.760
778.568	555.683
778.696	547.038
778.824	548.856
778.952	545.548
779.080	533.856
779.208	530.721
779.337	533.106
779.465	545.077
779.593	527.442
779.721	530.106
779.849	528.288
779.977	526.971
780.105	520.750
780.233	529.904
780.362	521.635
780.490	511.048
780.618	516.394
780.746	506.683
780.874	508.558
781.002	512.702
781.130	505.788
781.258	497.010
781.387	501.625
781.515	504.567
781.643	496.692
781.771	495.413
781.899	508.702
782.027	489.221
782.155	491.442
782.283	484.163
782.412	499.538
782.540	492.558
782.668	495.394
782.796	485.731
782.924	491.231
783.052	486.423
783.180	474.087
783.308	479.423
783.437	472.692
783.565	478.106
783.693	477.837
783.821	475.423
783.949	474.423
784.077	466.163
784.205	474.971
784.333	461.250
784.462	469.365
784.590	453.250
784.718	454.913
784.846	455.346
784.974	474.346
785.102	452.413
785.230	455.000
785.358	448.981
785.487	451.202
785.615	451.221
785.743	449.279
785.871	452.077
785.999	452.760
786.127	452.808
786.255	432.202
786.383	435.750
786.512	439.788
786.640	437.462
786.768	433.404
786.896	429.240
787.024	423.125
787.152	431.788
787.280	443.394
787.408	429.875
787.537	432.702
787.665	432.827
787.793	417.135
787.921	426.404
788.049	411.663
788.177	416.673
788.305	407.231
788.433	417.058
788.562	407.856
788.690	409.317
788.818	418.538
788.946	406.837
789.074	400.385
789.202	404.125
789.330	402.442
789.458	408.962
789.587	400.471
789.715	409.221
789.843	406.865
789.971	401.990
790.099	393.933
790.227	391.038
790.355	395.625
790.483	395.971
790.612	396.423
790.740	403.731
790.868	393.721
790.996	405.183
791.124	400.712
791.252	396.615
791.380	386.394
791.508	392.606
791.637	387.558
791.765	375.663
791.893	389.712
792.021	390.106
792.149	380.519
792.277	379.894
792.405	375.990
792.533	382.231
792.662	372.788
792.790	377.183
792.918	390.615
793.046	372.740
793.174	375.740
793.302	366.683
793.430	364.817
793.558	374.298
793.687	362.798
793.815	361.865
793.943	376.433
794.071	359.837
794.199	360.798
794.327	364.740
794.455	374.587
794.583	369.135
794.712	364.567
794.840	358.192
794.968	364.413
795.096	368.452
795.224	346.423
795.352	389.462
795.480	349.192
795.608	349.971
795.737	349.423
795.865	348.019
795.993	355.981
796.121	344.683
796.249	346.769
796.377	343.933
796.505	350.731
796.633	353.308
796.762	342.135
796.890	339.260
797.018	343.471
797.146	346.837
797.274	340.077
797.402	338.788
797.530	333.481
797.658	332.327
797.787	352.019
797.915	340.865
798.043	332.298
798.171	340.077
798.299	326.913
798.427	338.519
798.555	338.365
798.683	334.029
798.812	356.837
798.940	380.952
799.068	357.760
799.196	335.317
799.324	335.260
799.452	320.750
799.580	317.452
799.708	321.712
799.837	320.231
799.965	318.279
800.093	318.442
800.221	311.904
800.349	318.250
800.477	309.683
800.605	314.471
800.733	323.240
800.862	315.817
800.990	312.144
801.118	311.942
801.246	311.308
801.374	314.423
801.502	305.885
801.630	311.019
801.758	309.558
801.887	300.683
802.015	313.500
802.143	298.683
802.271	303.135
802.399	297.615
802.527	301.529
802.655	296.163
802.783	301.625
802.912	300.548
803.040	300.433
803.168	297.933
803.296	307.885
803.424	295.952
803.552	295.067
803.680	302.087
803.808	294.356
803.937	294.567
804.065	297.471
804.193	295.913
804.321	309.433
804.449	307.808
804.577	298.913
804.705	310.452
804.833	296.087
804.962	289.827
805.090	294.010
805.218	289.260
805.346	282.048
805.474	295.010
805.602	289.808
805.730	300.538
805.858	275.808
805.987	282.740
806.115	282.106
806.243	292.365
806.371	284.798
806.499	283.904
806.627	274.750
806.755	281.144
806.883	281.692
807.012	278.500
807.140	283.779
807.268	271.760
807.396	273.721
807.524	274.048
807.652	280.885
807.780	277.625
807.908	276.654
808.037	293.567
808.165	285.635
808.293	270.500
808.421	270.154
808.549	267.769
808.677	273.856
808.805	285.067
808.933	272.885
809.062	273.346
809.190	277.654
809.318	272.413
809.446	266.048
809.574	277.298
809.702	266.596
809.830	257.212
809.958	273.231
810.087	269.231
810.215	265.990
810.343	271.010
810.471	266.558
810.599	261.779
810.727	268.904
810.855	257.510
810.983	261.385
811.112	261.846
811.240	264.192
811.368	260.317
811.496	265.731
811.624	261.404
811.752	264.135
811.880	275.750
812.008	266.856
812.137	268.856
812.265	257.240
812.393	259.712
812.521	248.625
812.649	262.183
812.777	252.913
812.905	265.452
813.033	264.077
813.162	251.019
813.290	253.865
813.418	255.990
813.546	252.971
813.674	252.212
813.802	249.635
813.930	251.654
814.058	245.279
814.187	249.644
814.315	247.827
814.443	247.240
814.571	249.567
814.699	241.202
814.827	248.779
814.955	256.346
815.083	242.077
815.212	249.923
815.340	239.500
815.468	256.779
815.596	243.587
815.724	245.308
815.852	246.288
815.980	243.077
816.108	243.221
816.237	248.500
816.365	255.519
816.493	247.856
816.621	255.529
816.749	233.827
816.877	300.433
817.005	257.971
817.133	246.375
817.262	243.625
817.390	235.702
817.518	246.615
817.646	234.952
817.774	232.817
817.902	232.615
818.030	232.269
818.158	244.894
818.287	233.788
818.415	237.346
818.543	229.577
818.671	235.962
818.799	228.106
818.927	227.769
819.055	255.404
819.183	234.760
819.312	253.365
819.440	227.846
819.568	223.279
819.696	233.817
819.824	232.779
819.952	230.163
820.080	230.981
820.208	230.635
820.337	228.971
820.465	230.817
820.593	231.144
820.721	228.087
820.849	226.413
820.977	229.087
821.105	229.683
821.233	219.740
821.362	234.442
821.490	224.317
821.618	230.212
821.746	236.875
821.874	224.933
822.002	214.952
822.130	222.212
822.258	226.077
822.387	224.481
822.515	226.587
822.643	223.865
822.771	220.548
822.899	226.173
823.027	218.221
823.155	225.000
823.283	233.865
823.412	229.923
823.540	214.519
823.668	216.712
823.796	218.481
823.924	215.846
824.052	218.010
824.180	226.250
824.308	219.154
824.437	228.192
824.565	219.538
824.693	211.394
824.821	212.538
824.949	220.010
825.077	219.769
825.205	213.365
825.333	215.298
825.462	223.125
825.590	216.413
825.718	208.827
825.846	215.317
825.974	217.067
826.102	216.000
826.230	220.971
826.358	218.981
826.487	215.471
826.615	213.096
826.743	207.788
826.871	215.433
826.999	211.260
827.127	214.240
827.255	208.356
827.383	206.433
827.512	209.087
827.640	213.635
827.768	229.135
827.896	204.154
828.024	217.356
828.152	207.298
828.280	211.808
828.408	207.202
828.537	209.904
828.665	210.288
828.793	206.615
828.921	206.356
829.049	205.788
829.177	208.240
829.305	203.087
829.433	201.990
829.562	205.769
829.690	208.712
829.818	209.712
829.946	201.865
830.074	204.529
830.202	202.856
830.330	208.567
830.458	201.048
830.587	211.327
830.715	200.269
830.843	197.587
830.971	208.442
831.099	205.587
831.227	228.163
831.355	194.106
831.483	201.298
831.612	202.221
831.740	197.913
831.868	201.962
831.996	205.740
832.124	198.567
832.252	207.837
832.380	202.433
832.508	200.846
832.637	201.683
832.765	203.625
832.893	201.163
833.021	199.529
833.149	195.067
833.277	197.423
833.405	208.144
833.533	194.269
833.662	204.452
833.790	197.154
833.918	197.923
834.046	195.269
834.174	193.529
834.302	203.231
834.430	193.558
834.558	195.048
834.687	200.096
834.815	193.856
834.943	195.423
835.071	197.740
835.199	199.000
835.327	192.846
835.455	204.942
835.583	195.596
835.712	191.923
835.840	197.846
835.968	191.846
836.096	201.106
836.224	191.904
836.352	196.567
836.480	190.558
836.608	190.846
836.737	195.279
836.865	190.308
836.993	200.058
837.121	205.913
837.249	200.317
837.377	192.500
837.505	188.077
837.633	190.923
837.762	192.913
837.890	196.606
838.018	189.038
838.146	191.327
838.274	191.019
838.402	191.788
838.530	203.077
838.658	192.298
838.787	198.394
838.915	188.385
839.043	196.375
839.171	187.317
839.299	192.356
839.427	210.837
839.555	196.692
839.683	187.221
839.812	187.481
839.940	184.548
840.068	189.500
840.196	216.308
840.324	206.471
840.452	194.317
840.580	189.394
840.708	180.663
840.837	193.452
840.965	190.221
841.093	183.048
841.221	186.538
841.349	189.135
841.477	182.192
841.605	183.279
841.733	187.788
841.862	194.385
841.990	187.010
842.118	187.163
842.246	185.067
842.374	177.538
842.502	192.404
842.630	187.962
842.758	181.288
842.887	193.346
843.015	197.740
843.143	184.163
843.271	182.923
843.399	189.000
843.527	184.981
843.655	184.500
843.783	183.798
843.912	180.519
844.040	182.952
844.168	183.288
844.296	196.260
844.424	191.058
844.552	190.798
844.680	186.471
844.808	184.231
844.937	183.952
845.065	184.625
845.193	197.587
845.321	187.067
845.449	191.712
845.577	188.471
845.705	180.106
845.833	181.654
845.962	190.750
846.090	183.798
846.218	191.048
846.346	187.298
846.474	184.817
846.602	176.625
846.730	184.038
846.858	182.308
846.987	177.846
847.115	189.510
847.243	193.356
847.371	178.635
847.499	183.173
847.627	184.221
847.755	182.019
847.883	192.087
848.012	189.000
848.140	175.558
848.268	179.058
848.396	185.423
848.524	191.481
848.652	180.279
848.780	176.385
848.908	185.279
849.037	180.596
849.165	179.548
849.293	187.606
849.421	183.067
849.549	182.760
849.677	181.298
849.805	187.740
849.933	178.894
850.062	183.779
850.190	182.865
850.318	179.077
850.446	189.837
850.574	182.471
850.702	178.654
850.830	174.356
850.958	181.106
851.087	185.144
851.215	175.817
851.343	179.308
851.471	183.125
851.599	186.817
851.727	194.683
851.855	180.529
851.983	187.269
852.112	177.663
852.240	188.317
852.368	192.885
852.496	178.962
852.624	179.837
852.752	189.952
852.880	185.990
853.008	182.240
853.137	181.269
853.265	186.933
853.393	179.519
853.521	174.904
853.649	185.721
853.777	179.529
853.905	174.519
854.033	176.990
854.162	177.442
854.290	176.548
854.418	196.500
854.546	204.798
854.674	194.423
854.802	183.067
854.930	177.615
855.058	185.981
855.187	177.125
855.315	206.058
855.443	174.000
855.571	177.202
855.699	189.308
855.827	174.702
855.955	172.500
856.083	179.923
856.212	180.452
856.340	179.433
856.468	182.115
856.596	175.413
856.724	185.933
856.852	194.769
856.980	175.712
857.108	174.529
857.237	170.644
857.365	182.144
857.493	183.058
857.621	180.952
857.749	172.654
857.877	174.760
858.005	176.663
858.133	176.933
858.262	173.346
858.390	175.548
858.518	170.875
858.646	185.635
858.774	170.952
858.902	174.798
859.030	179.808
859.158	181.058
859.287	175.962
859.415	178.106
859.543	177.558
859.671	179.346
859.799	189.385
859.927	177.510
860.055	172.038
860.183	170.173
860.312	174.769
860.440	177.904
860.568	168.404
860.696	185.038
860.824	185.519
860.952	170.548
861.080	180.337
861.208	178.846
861.337	176.317
861.465	188.587
861.593	178.933
861.721	182.202
861.849	182.048
861.977	175.462
862.105	182.385
862.233	176.240
862.362	175.327
862.490	174.500
862.618	177.029
862.746	178.442
862.874	181.548
863.002	177.808
863.130	177.769
863.258	177.721
863.387	179.875
863.515	179.692
863.643	182.721
863.771	175.567
863.899	179.096
864.027	182.731
864.155	202.096
864.283	177.135
864.412	173.913
864.540	182.087
864.668	170.529
864.796	173.231
864.924	176.769
865.052	173.413
865.180	190.808
865.308	175.721
865.437	181.471
865.565	173.423
865.693	175.404
865.821	173.567
865.949	193.500
866.077	180.346
866.205	176.240
866.333	180.202
866.462	171.365
866.590	182.356
866.718	179.990
866.846	170.288
866.974	176.865
867.102	171.654
867.230	182.837
867.358	173.462
867.487	183.269
867.615	185.538
867.743	174.183
867.871	181.904
867.999	178.288
868.127	188.442
868.255	188.615
868.383	171.558
868.512	176.923
868.640	179.644
868.768	171.250
868.896	185.712
869.024	171.990
869.152	171.096
869.280	172.577
869.408	170.202
869.537	173.365
869.665	169.000
869.793	175.577
869.921	174.962
870.049	168.962
870.177	176.019
870.305	172.692
870.433	176.865
870.562	181.058
870.690	174.894
870.818	183.673
870.946	174.942
871.074	166.952
871.202	176.231
871.330	168.029
871.458	176.644
871.587	175.692
871.715	177.808
871.843	178.154
871.971	182.471
872.099	167.663
872.227	176.173
872.355	173.856
872.483	174.548
872.612	179.817
872.740	176.087
872.868	173.288
872.996	177.952
873.124	184.404
873.252	175.933
873.380	170.404
873.508	182.885
873.637	183.798
873.765	172.538
873.893	174.692
874.021	176.240
874.149	174.587
874.277	176.510
874.405	178.356
874.533	181.154
874.662	174.048
874.790	180.808
874.918	173.490
875.046	178.500
875.174	176.519
875.302	174.288
875.430	171.913
875.558	176.808
875.687	184.990
875.815	180.385
875.943	180.490
876.071	179.087
876.199	180.606
876.327	178.433
876.455	176.952
876.583	172.952
876.712	186.135
876.840	177.144
876.968	177.183
877.096	178.202
877.224	178.837
877.352	172.538
877.480	175.712
877.608	185.385
877.737	178.788
877.865	174.490
877.993	176.942
878.121	181.250
878.249	172.904
878.377	173.173
878.505	180.558
878.633	178.337
878.762	174.096
878.890	175.567
879.018	186.740
879.146	178.433
879.274	202.298
879.402	178.750
879.530	175.692
879.658	177.327
879.787	178.019
879.915	176.317
880.043	173.923
880.171	210.481
880.299	181.548
880.427	184.442
880.555	175.106
880.683	184.462
880.812	178.798
880.940	176.904
881.068	185.606
881.196	174.500
881.324	172.990
881.452	176.173
881.580	181.375
881.708	185.538
881.837	183.144
881.965	182.106
882.093	171.663
882.221	173.221
882.349	172.375
882.477	180.067
882.605	179.106
882.733	185.712
882.862	175.933
882.990	189.731
883.118	185.433
883.246	186.856
883.374	179.048
883.502	184.952
883.630	183.856
883.758	176.308
883.887	182.183
884.015	182.904
884.143	183.048
884.271	180.154
884.399	172.837
884.527	182.923
884.655	177.827
884.783	179.769
884.912	202.808
885.040	189.096
885.168	176.288
885.296	185.567
885.424	178.808
885.552	178.231
885.680	193.260
885.808	185.423
885.937	186.288
886.065	186.923
886.193	184.404
886.321	177.913
886.449	178.135
886.577	177.529
886.705	190.827
886.833	175.125
886.962	181.125
887.090	181.106
887.218	181.183
887.346	179.269
887.474	181.606
887.602	179.058
887.730	178.423
887.858	175.750
887.987	178.183
888.115	182.971
888.243	178.529
888.371	191.481
888.499	180.452
888.627	177.635
888.755	186.846
888.883	179.279
889.012	185.288
889.140	177.971
889.268	184.827
889.396	176.038
889.524	186.019
889.652	173.913
889.780	175.433
889.908	177.798
890.037	186.808
890.165	180.298
890.293	187.115
890.421	178.673
890.549	173.567
890.677	170.250
890.805	182.625
890.933	179.558
891.062	179.856
891.190	182.577
891.318	181.288
891.446	179.692
891.574	173.356
891.702	178.750
891.830	183.317
891.958	193.298
892.087	186.538
892.215	182.846
892.343	178.413
892.471	184.010
892.599	175.154
892.727	183.577
892.855	200.317
892.983	172.298
893.112	178.644
893.240	189.471
893.368	180.923
893.496	187.625
893.624	183.317
893.752	202.279
893.880	185.202
894.008	184.442
894.137	180.298
894.265	186.885
894.393	179.404
894.521	183.606
894.649	183.010
894.777	177.144
894.905	215.894
895.033	174.202
895.162	179.404
895.290	185.712
895.418	183.067
895.546	211.971
895.674	183.308
895.802	219.163
895.930	181.279
896.058	176.058
896.187	179.663
896.315	173.769
896.443	187.788
896.571	202.356
896.699	178.394
896.827	179.250
896.955	179.942
897.083	182.260
897.212	178.740
897.340	177.019
897.468	178.837
897.596	176.740
897.724	180.481
897.852	174.231
897.980	171.154
898.108	186.587
898.237	175.442
898.365	177.971
898.493	181.827
898.621	181.106
898.749	179.221
898.877	178.865
899.005	177.808
899.133	181.913
899.262	189.154
899.390	181.192
899.518	182.577
899.646	176.750
899.774	172.654
899.902	172.308
900.030	189.731
900.158	177.712
900.287	178.394
900.415	169.144
900.543	182.317
900.671	185.519
900.799	178.375
900.927	172.846
901.055	188.192
901.183	190.308
901.312	184.750
901.440	171.423
901.568	174.750
901.696	177.048
901.824	174.519
901.952	173.510
902.080	184.058
902.208	175.385
902.337	186.019
902.465	179.096
902.593	192.202
902.721	200.846
902.849	193.144
902.977	181.279
903.105	179.462
903.233	179.587
903.362	171.885
903.490	182.317
903.618	178.644
903.746	174.250
903.874	182.827
904.002	176.385
904.130	188.038
904.258	171.221
904.387	184.010
904.515	170.490
904.643	178.317
904.771	172.808
904.899	173.808
905.027	178.365
905.155	176.183
905.283	172.471
905.412	192.548
905.540	179.173
905.668	176.183
905.796	176.423
905.924	177.077
906.052	179.010
906.180	181.144
906.308	177.731
906.437	173.779
906.565	182.154
906.693	185.327
906.821	173.760
906.949	174.712
907.077	169.308
907.205	181.317
907.333	170.837
907.462	171.933
907.590	175.952
907.718	174.779
907.846	180.885
907.974	170.288
908.102	176.433
908.230	178.769
908.358	173.288
908.487	173.394
908.615	184.846
908.743	184.106
908.871	175.625
908.999	170.702
909.127	175.490
909.255	183.471
909.383	173.423
909.512	169.923
909.640	186.654
909.768	175.519
909.896	179.154
910.024	183.702
910.152	184.135
910.280	182.413
910.408	171.298
910.537	172.817
910.665	181.606
910.793	179.385
910.921	182.567
911.049	180.356
911.177	183.615
911.305	173.827
911.433	204.038
911.562	180.558
911.690	182.058
911.818	179.327
911.946	178.615
912.074	181.452
912.202	178.452
912.330	192.221
912.458	174.385
912.587	180.635
912.715	179.471
912.843	191.038
912.971	182.144
913.099	196.933
913.227	188.731
913.355	184.750
913.483	193.846
913.612	188.750
913.740	207.404
913.868	184.798
