Ref_Start_0_Pol_at_750.00nm_cut_at_1184.50Y_01.dat
03.07.2023
10:44:06
cut middle at Y: 1184.50
top cursor: 1231 down cursor: 1138 mean of: 93 lines , 2560 datapoints
wavelength(nm)	intensity[arb. units]
585.996	10428.914
586.124	10231.989
586.252	10245.699
586.380	10260.667
586.508	10294.978
586.637	10367.129
586.765	10316.624
586.893	10375.559
587.021	10428.667
587.149	10409.645
587.277	10437.624
587.405	10411.000
587.533	10497.559
587.662	10508.699
587.790	10449.280
587.918	10439.398
588.046	10421.000
588.174	10475.376
588.302	10443.419
588.430	10477.237
588.558	10479.710
588.687	10502.419
588.815	10465.376
588.943	10517.624
589.071	10491.559
589.199	10473.677
589.327	10469.462
589.455	10514.140
589.583	10466.796
589.712	10479.376
589.840	10437.656
589.968	10453.860
590.096	10469.473
590.224	10477.237
590.352	10497.366
590.480	10470.280
590.608	10429.355
590.737	10450.043
590.865	10567.935
590.993	10417.570
591.121	10446.505
591.249	10413.774
591.377	10450.914
591.505	10528.419
591.633	10441.817
591.762	10437.581
591.890	10436.710
592.018	10557.301
592.146	10479.097
592.274	10463.699
592.402	10450.656
592.530	10651.989
592.658	10513.957
592.787	10516.398
592.915	10563.398
593.043	10488.925
593.171	10525.946
593.299	10496.785
593.427	10507.269
593.555	10513.667
593.683	10525.763
593.812	10573.699
593.940	10563.290
594.068	10557.645
594.196	10564.215
594.324	10572.731
594.452	10771.688
594.580	10641.376
594.708	10697.011
594.837	10641.806
594.965	10749.849
595.093	10683.473
595.221	10744.086
595.349	10740.925
595.477	10766.946
595.605	10775.538
595.733	10757.387
595.862	10792.667
595.990	10833.247
596.118	10854.731
596.246	10911.419
596.374	10859.204
596.502	10874.742
596.630	10911.699
596.758	10885.978
596.887	10897.548
597.015	10884.280
597.143	10911.914
597.271	10896.570
597.399	10948.742
597.527	10903.183
597.655	10936.892
597.783	10926.903
597.912	10926.409
598.040	10994.118
598.168	10911.430
598.296	10894.290
598.424	11076.731
598.552	10906.527
598.680	10914.559
598.808	10995.151
598.937	10909.925
599.065	10923.903
599.193	10987.194
599.321	10975.699
599.449	10888.957
599.577	10922.473
599.705	10918.774
599.833	10905.215
599.962	10871.892
600.090	10889.312
600.218	10853.591
600.346	10839.968
600.474	10852.290
600.602	10829.667
600.730	10813.215
600.858	10840.065
600.987	10864.677
601.115	10873.839
601.243	10944.204
601.371	10923.118
601.499	10884.538
601.627	10885.645
601.755	10845.860
601.883	10920.333
602.012	10802.398
602.140	10901.387
602.268	10879.118
602.396	11002.538
602.524	10890.290
602.652	10987.613
602.780	10959.172
602.908	10964.075
603.037	11025.183
603.165	11041.763
603.293	11014.043
603.421	11059.710
603.549	11069.194
603.677	11073.935
603.805	11089.968
603.933	11138.409
604.062	11166.280
604.190	11226.344
604.318	11224.323
604.446	11221.108
604.574	11295.495
604.702	11303.753
604.830	11259.161
604.958	11314.194
605.087	11351.720
605.215	11403.527
605.343	11533.785
605.471	11491.312
605.599	11505.957
605.727	11559.516
605.855	11557.129
605.983	11620.280
606.112	11666.226
606.240	11616.699
606.368	11627.882
606.496	11638.226
606.624	11732.151
606.752	11649.763
606.880	11718.796
607.008	11700.699
607.137	11670.624
607.265	11796.387
607.393	11762.892
607.521	11833.495
607.649	11756.645
607.777	11762.968
607.905	11789.409
608.033	11758.817
608.162	11776.172
608.290	11774.591
608.418	11872.097
608.546	11837.785
608.674	11817.699
608.802	11768.258
608.930	11789.860
609.058	11699.215
609.187	11743.624
609.315	11752.032
609.443	11709.538
609.571	11831.570
609.699	11690.495
609.827	11787.366
609.955	11720.828
610.083	11645.301
610.212	11659.312
610.340	11686.000
610.468	11656.398
610.596	11668.957
610.724	11614.140
610.852	11667.505
610.980	11659.570
611.108	11617.398
611.237	11627.559
611.365	11631.925
611.493	11625.183
611.621	11595.688
611.749	11617.978
611.877	11696.366
612.005	11614.871
612.133	11625.710
612.262	11648.753
612.390	11683.312
612.518	11704.473
612.646	11638.484
612.774	11706.043
612.902	11738.161
613.030	11702.441
613.158	11661.129
613.287	11775.430
613.415	11620.215
613.543	11719.957
613.671	11700.860
613.799	11727.925
613.927	11756.505
614.055	11773.667
614.183	11807.097
614.312	11748.849
614.440	11926.871
614.568	11852.301
614.696	11853.054
614.824	11850.355
614.952	11935.118
615.080	11913.237
615.208	11919.043
615.337	12016.925
615.465	11921.097
615.593	12002.774
615.721	11974.602
615.849	12079.366
615.977	12015.430
616.105	12037.140
616.233	12040.806
616.362	12149.398
616.490	12099.237
616.618	12138.677
616.746	12228.312
616.874	12195.054
617.002	12218.828
617.130	12171.613
617.258	12156.226
617.387	12198.882
617.515	12236.935
617.643	12232.634
617.771	12284.430
617.899	12212.129
618.027	12315.398
618.155	12295.645
618.283	12292.312
618.412	12288.602
618.540	12369.946
618.668	12290.581
618.796	12340.860
618.924	12242.527
619.052	12286.183
619.180	12264.065
619.308	12247.355
619.437	12286.258
619.565	12252.774
619.693	12223.946
619.821	12298.914
619.949	12214.710
620.077	12264.226
620.205	12297.559
620.333	12308.086
620.462	12215.570
620.590	12250.946
620.718	12267.129
620.846	12269.000
620.974	12276.462
621.102	12295.226
621.230	12287.118
621.358	12390.753
621.487	12222.194
621.615	12265.344
621.743	12169.613
621.871	12237.441
621.999	12194.366
622.127	12195.290
622.255	12141.720
622.383	12159.925
622.512	12145.108
622.640	12128.763
622.768	12175.989
622.896	12234.925
623.024	12185.688
623.152	12126.946
623.280	12233.849
623.408	12155.774
623.537	12182.656
623.665	12130.323
623.793	12178.581
623.921	12147.527
624.049	12095.624
624.177	12106.269
624.305	12127.839
624.433	12130.785
624.562	12081.452
624.690	12243.495
624.818	12047.634
624.946	12084.968
625.074	12039.452
625.202	12013.043
625.330	12049.290
625.458	12181.226
625.587	12009.140
625.715	12098.903
625.843	12012.344
625.971	12079.785
626.099	12051.301
626.227	12054.140
626.355	11959.237
626.483	12039.409
626.612	11995.495
626.740	12011.247
626.868	12019.570
626.996	12062.032
627.124	12013.118
627.252	11956.548
627.380	12013.903
627.508	11963.871
627.637	11982.011
627.765	12016.441
627.893	12043.591
628.021	12089.495
628.149	11946.108
628.277	12078.645
628.405	12025.269
628.533	12034.441
628.662	12034.581
628.790	12089.710
628.918	11985.290
629.046	12137.108
629.174	12021.516
629.302	12019.677
629.430	11993.946
629.558	12061.538
629.687	12010.892
629.815	12094.118
629.943	12174.290
630.071	12088.527
630.199	12043.419
630.327	12144.882
630.455	12117.935
630.583	12116.323
630.712	12119.140
630.840	12105.699
630.968	12102.516
631.096	12063.462
631.224	12120.839
631.352	12239.548
631.480	12121.398
631.608	12318.430
631.737	12117.882
631.865	12261.269
631.993	12244.946
632.121	12363.366
632.249	12221.957
632.377	12164.462
632.505	12198.151
632.633	12203.398
632.762	12182.785
632.890	12171.376
633.018	12198.172
633.146	12158.161
633.274	12150.570
633.402	12176.108
633.530	12105.903
633.658	12125.957
633.787	12146.914
633.915	12134.634
634.043	12143.430
634.171	12154.151
634.299	12111.903
634.427	12081.366
634.555	12269.097
634.683	12104.903
634.812	12092.656
634.940	12051.462
635.068	12038.333
635.196	12008.183
635.324	12035.022
635.452	12007.903
635.580	12088.194
635.708	11971.753
635.837	11956.022
635.965	11995.516
636.093	11932.903
636.221	11904.237
636.349	11830.570
636.477	11859.258
636.605	11930.505
636.733	11831.774
636.862	11768.269
636.990	11829.022
637.118	11809.462
637.246	11732.613
637.374	11885.204
637.502	11672.796
637.630	11687.935
637.758	11688.645
637.887	11572.968
638.015	11751.688
638.143	11676.151
638.271	11541.710
638.399	11585.602
638.527	11534.710
638.655	11520.548
638.783	11511.720
638.912	11555.355
639.040	11446.527
639.168	11452.355
639.296	11386.183
639.424	11473.441
639.552	11389.473
639.680	11416.505
639.808	11370.946
639.937	11301.839
640.065	11305.720
640.193	11245.538
640.321	11386.806
640.449	11316.462
640.577	11272.892
640.705	11273.269
640.833	11251.505
640.962	11295.194
641.090	11187.237
641.218	11163.280
641.346	11258.323
641.474	11213.505
641.602	11177.376
641.730	11151.151
641.858	11114.957
641.987	11109.516
642.115	11309.409
642.243	11146.194
642.371	11290.054
642.499	11113.258
642.627	11188.258
642.755	11072.462
642.883	11110.409
643.012	11090.151
643.140	11166.817
643.268	11133.978
643.396	11048.559
643.524	11083.441
643.652	11147.602
643.780	10998.183
643.908	11039.290
644.037	11157.710
644.165	11121.839
644.293	11195.710
644.421	11023.387
644.549	11074.581
644.677	11075.032
644.805	10995.097
644.933	11012.108
645.062	11055.151
645.190	11150.699
645.318	11024.892
645.446	10940.613
645.574	10929.032
645.702	10996.366
645.830	10980.226
645.958	10907.419
646.087	10897.441
646.215	10900.151
646.343	10877.677
646.471	11034.753
646.599	10899.581
646.727	10868.591
646.855	10832.118
646.983	10811.871
647.112	10896.290
647.240	10833.785
647.368	10872.075
647.496	10798.032
647.624	10795.548
647.752	10788.860
647.880	10742.817
648.008	10741.484
648.137	10785.022
648.265	10692.634
648.393	10766.462
648.521	10696.108
648.649	10832.075
648.777	10717.677
648.905	10644.849
649.033	10726.118
649.162	10564.613
649.290	10534.989
649.418	10520.258
649.546	10702.129
649.674	10487.505
649.802	10495.624
649.930	10477.312
650.058	10387.699
650.187	10455.505
650.315	10409.161
650.443	10370.075
650.571	10324.473
650.699	10325.806
650.827	10290.785
650.955	10258.978
651.083	10314.097
651.212	10239.183
651.340	10226.581
651.468	10194.548
651.596	10205.344
651.724	10195.462
651.852	10134.118
651.980	10136.495
652.108	10087.462
652.237	10128.699
652.365	10040.785
652.493	10012.430
652.621	9968.280
652.749	10014.581
652.877	9978.538
653.005	9970.968
653.133	9935.925
653.262	9920.839
653.390	9896.280
653.518	10040.043
653.646	9820.000
653.774	9799.398
653.902	9893.301
654.030	9839.656
654.158	9734.495
654.287	9793.516
654.415	9746.527
654.543	9765.183
654.671	9705.269
654.799	9655.355
654.927	9678.699
655.055	9623.226
655.183	9628.376
655.312	9613.462
655.440	9566.753
655.568	9572.366
655.696	9610.258
655.824	9530.527
655.952	9520.925
656.080	9442.495
656.208	9457.151
656.337	9496.462
656.465	9625.118
656.593	9421.538
656.721	9448.516
656.849	9508.441
656.977	9304.108
657.105	9352.129
657.233	9364.839
657.362	9412.118
657.490	9325.344
657.618	9278.441
657.746	9307.344
657.874	9196.301
658.002	9183.882
658.130	9113.247
658.258	9126.677
658.387	9083.527
658.515	9037.796
658.643	9050.559
658.771	9104.720
658.899	9001.269
659.027	8997.774
659.155	8990.065
659.283	8951.118
659.412	8941.882
659.540	8941.247
659.668	8937.032
659.796	8999.108
659.924	8926.000
660.052	9022.258
660.180	8918.828
660.308	8998.269
660.437	8954.430
660.565	8865.366
660.693	8820.634
660.821	8967.387
660.949	8759.957
661.077	8813.000
661.205	8937.677
661.333	8755.720
661.462	8734.817
661.590	8813.677
661.718	8731.602
661.846	8737.204
661.974	8667.011
662.102	8691.301
662.230	8669.419
662.358	8537.022
662.487	8643.355
662.615	8571.602
662.743	8615.484
662.871	8587.290
662.999	8521.140
663.127	8497.946
663.255	8481.462
663.383	8598.129
663.512	8394.742
663.640	8471.796
663.768	8476.129
663.896	8421.161
664.024	8439.968
664.152	8390.172
664.280	8451.269
664.408	8318.828
664.537	8316.989
664.665	8358.839
664.793	8330.387
664.921	8284.011
665.049	8346.022
665.177	8236.527
665.305	8264.462
665.433	8245.441
665.562	8357.280
665.690	8271.957
665.818	8354.871
665.946	8160.849
666.074	8160.925
666.202	8162.129
666.330	8101.215
666.458	8618.269
666.587	8087.677
666.715	8085.710
666.843	8030.204
666.971	8077.129
667.099	8051.118
667.227	8082.591
667.355	8095.097
667.483	8006.323
667.612	7998.753
667.740	8024.430
667.868	7958.387
667.996	7917.419
668.124	7954.613
668.252	8058.720
668.380	7906.828
668.508	7926.892
668.637	7896.925
668.765	7927.570
668.893	7887.763
669.021	7800.925
669.149	7839.796
669.277	7761.688
669.405	7875.720
669.533	7848.677
669.662	7756.968
669.790	7732.548
669.918	7772.806
670.046	7841.688
670.174	7660.323
670.302	7635.957
670.430	7624.753
670.558	7667.086
670.687	7795.151
670.815	7598.925
670.943	7588.215
671.071	7507.645
671.199	7495.806
671.327	7539.860
671.455	7561.333
671.583	7493.065
671.712	7456.000
671.840	7510.495
671.968	7603.086
672.096	7569.172
672.224	7367.871
672.352	7355.376
672.480	7329.151
672.608	7373.398
672.737	7293.914
672.865	7241.570
672.993	7228.398
673.121	7216.462
673.249	7233.957
673.377	7164.430
673.505	7169.548
673.633	7208.946
673.762	7137.527
673.890	7111.763
674.018	7142.839
674.146	7080.269
674.274	7057.000
674.402	7130.882
674.530	7015.269
674.658	6962.441
674.787	6967.237
674.915	7100.892
675.043	6968.215
675.171	6954.989
675.299	6903.774
675.427	6871.194
675.555	6846.742
675.683	6874.989
675.812	6844.720
675.940	6824.656
676.068	6763.570
676.196	6832.828
676.324	6743.183
676.452	6698.344
676.580	6681.925
676.708	6661.000
676.837	6671.194
676.965	6759.742
677.093	6780.032
677.221	6636.613
677.349	6562.215
677.477	6668.978
677.605	6549.817
677.733	6553.871
677.862	6514.806
677.990	6504.484
678.118	6553.473
678.246	6476.538
678.374	6531.344
678.502	6444.935
678.630	6373.978
678.758	6395.333
678.887	6523.505
679.015	6313.323
679.143	6302.355
679.271	6298.183
679.399	6289.710
679.527	6304.688
679.655	6326.785
679.783	6217.828
679.912	6209.849
680.040	6372.989
680.168	6172.882
680.296	6193.624
680.424	6143.194
680.552	6140.419
680.680	6103.301
680.808	6095.839
680.937	6047.258
681.065	6089.054
681.193	6004.118
681.321	5998.097
681.449	6064.806
681.577	5991.226
681.705	5974.398
681.833	5968.763
681.962	5942.387
682.090	5927.376
682.218	5903.312
682.346	5908.946
682.474	5886.570
682.602	5858.312
682.730	5914.505
682.858	5829.495
682.987	5845.656
683.115	5830.495
683.243	5831.183
683.371	5798.667
683.499	5746.097
683.627	5800.355
683.755	5737.688
683.883	5719.570
684.012	5762.409
684.140	5686.688
684.268	5704.989
684.396	5749.086
684.524	5664.011
684.652	5687.785
684.780	5676.591
684.908	5661.129
685.037	5672.667
685.165	5638.699
685.293	5692.344
685.421	5624.161
685.549	5621.860
685.677	5561.043
685.805	5625.054
685.933	5572.290
686.062	5576.935
686.190	5545.688
686.318	5524.366
686.446	5508.806
686.574	5450.817
686.702	5537.473
686.830	5437.387
686.958	5510.387
687.087	5411.742
687.215	5447.473
687.343	5433.548
687.471	5565.011
687.599	5342.323
687.727	5342.226
687.855	5315.849
687.983	5288.312
688.112	5338.194
688.240	5277.978
688.368	5303.903
688.496	5272.677
688.624	5247.527
688.752	5378.602
688.880	5260.172
689.008	5211.591
689.137	5219.935
689.265	5178.882
689.393	5187.022
689.521	5172.344
689.649	5242.054
689.777	5164.989
689.905	5199.645
690.033	5108.602
690.162	5101.495
690.290	5113.247
690.418	5064.785
690.546	5112.624
690.674	5112.140
690.802	5112.204
690.930	5061.914
691.058	5043.785
691.187	4984.323
691.315	4967.882
691.443	4961.323
691.571	4996.323
691.699	4930.957
691.827	4935.925
691.955	4913.946
692.083	4877.011
692.212	4883.022
692.340	4898.667
692.468	4915.903
692.596	4886.247
692.724	4809.344
692.852	4856.817
692.980	4857.258
693.108	4873.527
693.237	4801.376
693.365	4778.882
693.493	4745.634
693.621	4763.688
693.749	4693.742
693.877	4777.925
694.005	4692.817
694.133	4649.871
694.262	4720.656
694.390	4606.570
694.518	4646.763
694.646	4628.043
694.774	4552.796
694.902	4570.667
695.030	4566.742
695.158	4564.043
695.287	4548.677
695.415	4524.344
695.543	4530.183
695.671	4447.720
695.799	4569.548
695.927	4475.763
696.055	4481.817
696.183	4423.011
696.312	4607.355
696.440	4425.849
696.568	4435.183
696.696	4309.462
696.824	4313.624
696.952	4328.656
697.080	4333.409
697.208	4282.688
697.337	4284.839
697.465	4256.237
697.593	4240.097
697.721	4330.022
697.849	4204.914
697.977	4240.989
698.105	4276.688
698.233	4199.849
698.362	4133.419
698.490	4268.323
698.618	4102.355
698.746	4091.914
698.874	4164.989
699.002	4124.484
699.130	4108.806
699.258	4078.538
699.387	3998.903
699.515	4058.753
699.643	4051.247
699.771	4125.516
699.899	3973.892
700.027	3945.226
700.155	4009.215
700.283	3882.925
700.412	3914.043
700.540	3947.032
700.668	3988.710
700.796	3878.774
700.924	3916.882
701.052	3910.323
701.180	3883.742
701.308	3811.731
701.437	3778.720
701.565	3786.140
701.693	3824.624
701.821	3985.409
701.949	3746.667
702.077	3756.258
702.205	3812.054
702.333	3730.989
702.462	3714.323
702.590	3765.419
702.718	3662.978
702.846	3839.871
702.974	3622.301
703.102	3628.581
703.230	3633.796
703.358	3583.613
703.487	3571.957
703.615	3588.882
703.743	3544.344
703.871	3532.387
703.999	3536.763
704.127	3538.194
704.255	3494.645
704.383	3521.505
704.512	3556.710
704.640	3529.968
704.768	3585.882
704.896	3444.656
705.024	3401.237
705.152	3402.452
705.280	3470.914
705.408	3375.140
705.537	3359.118
705.665	3368.409
705.793	3349.387
705.921	3330.075
706.049	3296.903
706.177	3347.570
706.305	3274.677
706.433	3307.484
706.562	3298.688
706.690	3275.968
706.818	3297.258
706.946	3200.871
707.074	3202.763
707.202	3171.774
707.330	3175.785
707.458	3153.796
707.587	3114.333
707.715	3135.860
707.843	3170.269
707.971	3160.258
708.099	3067.065
708.227	3070.839
708.355	3056.710
708.483	3058.290
708.612	3057.505
708.740	3000.548
708.868	3001.667
708.996	3080.043
709.124	3040.473
709.252	3025.968
709.380	3024.710
709.508	2956.280
709.637	2993.430
709.765	2960.753
709.893	2991.634
710.021	2917.247
710.149	3014.882
710.277	2890.280
710.405	2923.828
710.533	2890.022
710.662	2867.570
710.790	3004.828
710.918	2860.301
711.046	2873.763
711.174	2831.323
711.302	2858.484
711.430	2831.054
711.558	2877.247
711.687	2831.968
711.815	2810.215
711.943	2787.699
712.071	2799.720
712.199	2814.634
712.327	2855.484
712.455	2772.796
712.583	2907.935
712.712	2768.935
712.840	2807.011
712.968	2736.978
713.096	2746.118
713.224	2732.763
713.352	2735.624
713.480	2701.043
713.608	2705.387
713.737	2679.495
713.865	2702.505
713.993	2679.570
714.121	2693.215
714.249	2686.946
714.377	2679.183
714.505	2668.065
714.633	2657.430
714.762	2642.785
714.890	2639.323
715.018	2629.247
715.146	2653.925
715.274	2603.796
715.402	2580.817
715.530	2608.129
715.658	2600.355
715.787	2575.323
715.915	2605.097
716.043	2573.280
716.171	2575.677
716.299	2535.398
716.427	2553.613
716.555	2539.570
716.683	2533.323
716.812	2514.914
716.940	2519.978
717.068	2516.108
717.196	2545.570
717.324	2494.409
717.452	2470.280
717.580	2507.871
717.708	2448.215
717.837	2447.108
717.965	2462.366
718.093	2447.731
718.221	2448.344
718.349	2444.656
718.477	2421.086
718.605	2415.581
718.733	2397.441
718.862	2407.742
718.990	2396.591
719.118	2417.409
719.246	2359.989
719.374	2346.237
719.502	2366.860
719.630	2385.473
719.758	2346.720
719.887	2327.000
720.015	2323.516
720.143	2334.968
720.271	2296.892
720.399	2310.118
720.527	2278.065
720.655	2297.817
720.783	2269.935
720.912	2262.634
721.040	2263.290
721.168	2277.000
721.296	2231.237
721.424	2243.548
721.552	2233.968
721.680	2225.742
721.808	2227.032
721.937	2202.430
722.065	2203.559
722.193	2190.366
722.321	2197.495
722.449	2165.290
722.577	2156.290
722.705	2154.516
722.833	2144.161
722.962	2139.258
723.090	2121.247
723.218	2108.355
723.346	2128.957
723.474	2101.581
723.602	2073.237
723.730	2085.699
723.858	2074.613
723.987	2087.258
724.115	2088.022
724.243	2078.409
724.371	2050.774
724.499	2055.957
724.627	2027.946
724.755	2041.409
724.883	2054.419
725.012	2047.677
725.140	2024.860
725.268	1996.527
725.396	1997.699
725.524	2010.097
725.652	1987.151
725.780	1987.398
725.908	1983.011
726.037	1948.452
726.165	1943.462
726.293	1936.161
726.421	1936.828
726.549	1929.602
726.677	1922.602
726.805	1903.366
726.933	1903.409
727.062	1901.914
727.190	1875.097
727.318	1865.183
727.446	1865.323
727.574	1872.645
727.702	1851.280
727.830	1863.194
727.958	1849.742
728.087	1848.387
728.215	1835.355
728.343	1822.290
728.471	1821.161
728.599	1811.720
728.727	1808.677
728.855	1816.398
728.983	1777.839
729.112	1785.086
729.240	1774.925
729.368	1766.054
729.496	1751.591
729.624	1769.086
729.752	1763.634
729.880	1761.581
730.008	1762.011
730.137	1735.817
730.265	1717.172
730.393	1705.151
730.521	1685.935
730.649	1697.108
730.777	1667.710
730.905	1682.667
731.033	1661.312
731.162	1655.194
731.290	1677.452
731.418	1669.957
731.546	1649.806
731.674	1640.602
731.802	1644.828
731.930	1640.817
732.058	1601.226
732.187	1617.613
732.315	1606.409
732.443	1622.591
732.571	1619.527
732.699	1607.688
732.827	1613.548
732.955	1601.817
733.083	1592.892
733.212	1597.258
733.340	1597.086
733.468	1570.022
733.596	1555.129
733.724	1542.634
733.852	1558.269
733.980	1548.333
734.108	1560.108
734.237	1549.860
734.365	1537.161
734.493	1523.806
734.621	1541.108
734.749	1534.366
734.877	1503.215
735.005	1514.000
735.133	1505.677
735.262	1507.301
735.390	1484.183
735.518	1495.344
735.646	1497.376
735.774	1487.043
735.902	1483.624
736.030	1468.892
736.158	1469.978
736.287	1481.462
736.415	1474.269
736.543	1441.559
736.671	1446.495
736.799	1439.624
736.927	1437.978
737.055	1451.495
737.183	1431.108
737.312	1404.505
737.440	1419.344
737.568	1410.398
737.696	1413.742
737.824	1405.032
737.952	1651.892
738.080	1393.882
738.208	1389.043
738.337	1378.226
738.465	1385.108
738.593	1376.796
738.721	1351.892
738.849	1366.323
738.977	1352.634
739.105	1370.462
739.233	1361.645
739.362	1340.280
739.490	1340.968
739.618	1346.495
739.746	1340.946
739.874	1315.452
740.002	1341.968
740.130	1293.581
740.258	1303.849
740.387	1308.022
740.515	1310.129
740.643	1284.172
740.771	1293.290
740.899	1282.032
741.027	1274.839
741.155	1283.731
741.283	1272.591
741.412	1290.054
741.540	1270.129
741.668	1261.194
741.796	1258.301
741.924	1259.452
742.052	1245.903
742.180	1260.226
742.308	1235.011
742.437	1239.989
742.565	1234.667
742.693	1236.882
742.821	1239.301
742.949	1215.398
743.077	1214.312
743.205	1207.785
743.333	1195.075
743.462	1205.452
743.590	1195.774
743.718	1186.011
743.846	1179.882
743.974	1214.591
744.102	1175.366
744.230	1168.720
744.358	1175.806
744.487	1150.409
744.615	1143.860
744.743	1157.215
744.871	1151.247
744.999	1154.312
745.127	1151.742
745.255	1128.892
745.383	1131.183
745.512	1121.237
745.640	1121.129
745.768	1117.785
745.896	1117.355
746.024	1111.527
746.152	1107.258
746.280	1106.957
746.408	1112.957
746.537	1096.226
746.665	1109.462
746.793	1083.860
746.921	1082.355
747.049	1091.892
747.177	1086.935
747.305	1094.204
747.433	1081.860
747.562	1067.269
747.690	1076.935
747.818	1059.226
747.946	1069.634
748.074	1048.538
748.202	1051.710
748.330	1048.430
748.458	1027.925
748.587	1045.075
748.715	1037.323
748.843	1031.462
748.971	1021.237
749.099	1033.989
749.227	1021.860
749.355	1042.043
749.483	1001.011
749.612	1034.140
749.740	1015.849
749.868	1012.785
749.996	1003.839
750.124	1016.860
750.252	997.871
750.380	990.473
750.508	1002.000
750.637	986.667
750.765	984.839
750.893	978.559
751.021	972.538
751.149	980.301
751.277	962.419
751.405	953.946
751.533	976.957
751.662	949.828
751.790	943.796
751.918	953.817
752.046	942.516
752.174	940.699
752.302	925.710
752.430	920.892
752.558	929.387
752.687	925.903
752.815	918.559
752.943	915.624
753.071	920.376
753.199	914.333
753.327	925.505
753.455	897.398
753.583	898.172
753.712	895.280
753.840	908.108
753.968	903.634
754.096	885.237
754.224	891.753
754.352	883.226
754.480	890.656
754.608	869.215
754.737	881.892
754.865	883.269
754.993	891.570
755.121	872.129
755.249	845.710
755.377	840.269
755.505	857.269
755.633	850.871
755.762	844.204
755.890	860.946
756.018	848.269
756.146	836.022
756.274	826.043
756.402	828.828
756.530	851.495
756.658	827.581
756.787	812.075
756.915	815.194
757.043	806.409
757.171	819.473
757.299	824.065
757.427	804.290
757.555	800.419
757.683	803.441
757.812	807.839
757.940	789.946
758.068	779.333
758.196	784.301
758.324	782.688
758.452	792.065
758.580	783.452
758.708	770.344
758.837	792.011
758.965	786.312
759.093	770.548
759.221	758.753
759.349	754.043
759.477	758.817
759.605	746.871
759.733	763.032
759.862	746.656
759.990	732.430
760.118	743.591
760.246	751.247
760.374	741.011
760.502	741.387
760.630	728.688
760.758	725.118
760.887	728.989
761.015	726.430
761.143	729.333
761.271	719.624
761.399	718.398
761.527	723.183
761.655	717.204
761.783	697.183
761.912	705.785
762.040	721.462
762.168	688.785
762.296	686.538
762.424	709.817
762.552	697.194
762.680	678.914
762.808	704.570
762.937	692.505
763.065	678.495
763.193	679.753
763.321	670.742
763.449	666.548
763.577	659.355
763.705	680.516
763.833	671.032
763.962	652.419
764.090	655.828
764.218	659.441
764.346	650.151
764.474	654.022
764.602	637.720
764.730	651.978
764.858	655.301
764.987	649.183
765.115	634.237
765.243	623.290
765.371	634.269
765.499	630.151
765.627	630.785
765.755	630.849
765.883	626.301
766.012	625.505
766.140	617.591
766.268	620.935
766.396	616.043
766.524	623.634
766.652	607.452
766.780	614.097
766.908	612.634
767.037	620.097
767.165	601.774
767.293	613.065
767.421	603.151
767.549	590.978
767.677	612.183
767.805	598.624
767.933	589.065
768.062	578.441
768.190	582.742
768.318	574.839
768.446	587.731
768.574	577.978
768.702	576.237
768.830	578.269
768.958	567.430
769.087	577.086
769.215	568.581
769.343	574.161
769.471	570.753
769.599	564.473
769.727	556.097
769.855	546.634
769.983	587.796
770.112	550.054
770.240	542.022
770.368	545.183
770.496	547.108
770.624	546.935
770.752	535.591
770.880	549.312
771.008	531.538
771.137	528.419
771.265	524.548
771.393	522.624
771.521	525.194
771.649	534.022
771.777	565.935
771.905	586.602
772.033	562.441
772.162	517.194
772.290	520.699
772.418	524.828
772.546	515.032
772.674	518.828
772.802	509.000
772.930	515.269
773.058	504.667
773.187	502.086
773.315	503.000
773.443	507.742
773.571	507.108
773.699	490.903
773.827	506.269
773.955	509.978
774.083	502.505
774.212	493.860
774.340	487.323
774.468	494.828
774.596	487.118
774.724	496.548
774.852	497.774
774.980	484.978
775.108	480.011
775.237	476.570
775.365	475.763
775.493	476.667
775.621	476.946
775.749	475.849
775.877	484.333
776.005	470.011
776.133	465.355
776.262	472.839
776.390	469.978
776.518	456.667
776.646	463.011
776.774	462.452
776.902	450.022
777.030	449.731
777.158	460.258
777.287	467.849
777.415	449.892
777.543	452.989
777.671	457.075
777.799	453.871
777.927	456.925
778.055	452.151
778.183	444.699
778.312	444.215
778.440	447.032
778.568	458.860
778.696	442.226
778.824	450.903
778.952	446.505
779.080	443.215
779.208	439.570
779.337	436.656
779.465	446.473
779.593	428.710
779.721	439.376
779.849	432.387
779.977	433.624
780.105	433.903
780.233	433.699
780.362	430.118
780.490	415.914
780.618	428.968
780.746	420.785
780.874	422.075
781.002	423.280
781.130	417.710
781.258	417.333
781.387	414.366
781.515	415.806
781.643	409.634
781.771	415.785
781.899	424.344
782.027	415.280
782.155	409.258
782.283	409.011
782.412	417.398
782.540	414.903
782.668	409.978
782.796	408.065
782.924	417.430
783.052	417.376
783.180	399.118
783.308	404.968
783.437	400.226
783.565	407.409
783.693	399.054
783.821	399.484
783.949	398.656
784.077	394.817
784.205	400.441
784.333	391.194
784.462	395.774
784.590	389.968
784.718	381.710
784.846	392.226
784.974	405.075
785.102	384.925
785.230	387.215
785.358	382.419
785.487	381.473
785.615	376.968
785.743	385.376
785.871	388.323
785.999	393.290
786.127	385.065
786.255	377.312
786.383	373.151
786.512	382.527
786.640	369.462
786.768	364.129
786.896	373.452
787.024	364.226
787.152	366.946
787.280	388.430
787.408	367.946
787.537	377.742
787.665	370.796
787.793	364.065
787.921	366.011
788.049	359.763
788.177	362.151
788.305	362.903
788.433	360.344
788.562	355.075
788.690	357.269
788.818	362.290
788.946	350.742
789.074	344.720
789.202	343.097
789.330	345.828
789.458	357.054
789.587	349.269
789.715	352.817
789.843	355.903
789.971	347.269
790.099	341.237
790.227	340.656
790.355	345.355
790.483	345.871
790.612	342.108
790.740	346.258
790.868	341.183
790.996	353.118
791.124	357.333
791.252	343.516
791.380	338.441
791.508	342.290
791.637	347.355
791.765	327.989
791.893	339.237
792.021	344.140
792.149	329.817
792.277	339.075
792.405	328.118
792.533	337.699
792.662	331.860
792.790	337.516
792.918	341.903
793.046	325.871
793.174	324.323
793.302	334.699
793.430	328.505
793.558	341.258
793.687	329.527
793.815	319.237
793.943	336.516
794.071	320.495
794.199	312.968
794.327	322.849
794.455	333.344
794.583	325.140
794.712	317.914
794.840	314.710
794.968	325.570
795.096	330.538
795.224	306.022
795.352	357.161
795.480	307.344
795.608	314.699
795.737	309.505
795.865	306.796
795.993	320.280
796.121	311.409
796.249	306.667
796.377	312.763
796.505	308.333
796.633	314.516
796.762	308.989
796.890	300.398
797.018	308.204
797.146	311.742
797.274	314.333
797.402	298.946
797.530	294.538
797.658	300.452
797.787	311.903
797.915	305.344
798.043	293.333
798.171	302.419
798.299	288.559
798.427	302.312
798.555	310.624
798.683	302.613
798.812	327.258
798.940	345.817
799.068	326.645
799.196	301.484
799.324	305.280
799.452	287.430
799.580	294.011
799.708	292.720
799.837	290.376
799.965	286.484
800.093	292.075
800.221	288.602
800.349	290.086
800.477	283.484
800.605	281.011
800.733	276.473
800.862	286.624
800.990	282.839
801.118	281.108
801.246	281.731
801.374	290.011
801.502	284.323
801.630	284.140
801.758	280.548
801.887	275.043
802.015	276.065
802.143	268.860
802.271	276.634
802.399	269.720
802.527	264.215
802.655	274.043
802.783	272.430
802.912	272.204
803.040	273.430
803.168	267.763
803.296	280.978
803.424	269.172
803.552	273.269
803.680	269.097
803.808	269.355
803.937	262.763
804.065	269.355
804.193	269.258
804.321	276.118
804.449	284.097
804.577	271.688
804.705	287.925
804.833	258.301
804.962	264.075
805.090	266.581
805.218	265.742
805.346	257.699
805.474	269.677
805.602	263.032
805.730	278.570
805.858	254.462
805.987	257.366
806.115	254.000
806.243	266.774
806.371	258.505
806.499	261.269
806.627	253.731
806.755	256.624
806.883	260.473
807.012	255.215
807.140	260.602
807.268	249.774
807.396	255.398
807.524	248.925
807.652	267.108
807.780	256.011
807.908	257.581
808.037	271.032
808.165	260.452
808.293	247.409
808.421	250.645
808.549	246.043
808.677	248.097
808.805	264.258
808.933	253.022
809.062	247.172
809.190	260.290
809.318	246.817
809.446	243.774
809.574	257.946
809.702	244.140
809.830	233.699
809.958	252.742
810.087	248.409
810.215	244.462
810.343	243.065
810.471	246.774
810.599	234.903
810.727	243.871
810.855	239.989
810.983	245.237
811.112	242.516
811.240	240.699
811.368	241.075
811.496	240.828
811.624	239.710
811.752	237.301
811.880	253.022
812.008	244.871
812.137	253.839
812.265	238.118
812.393	243.290
812.521	233.720
812.649	242.968
812.777	231.065
812.905	239.226
813.033	241.075
813.162	236.559
813.290	232.323
813.418	237.108
813.546	237.333
813.674	234.645
813.802	228.430
813.930	232.237
814.058	229.602
814.187	230.301
814.315	232.376
814.443	229.495
814.571	231.237
814.699	222.441
814.827	232.484
814.955	235.204
815.083	228.699
815.212	231.398
815.340	223.269
815.468	239.258
815.596	227.903
815.724	228.570
815.852	232.484
815.980	223.667
816.108	219.032
816.237	228.505
816.365	241.269
816.493	224.882
816.621	234.634
816.749	214.280
816.877	294.731
817.005	245.032
817.133	226.699
817.262	226.323
817.390	222.151
817.518	230.462
817.646	217.860
817.774	214.215
817.902	212.591
818.030	214.720
818.158	219.935
818.287	220.978
818.415	217.333
818.543	210.559
818.671	215.355
818.799	217.344
818.927	208.441
819.055	227.742
819.183	218.355
819.312	230.194
819.440	218.667
819.568	208.258
819.696	213.269
819.824	215.022
819.952	211.462
820.080	213.989
820.208	214.559
820.337	219.731
820.465	214.742
820.593	214.398
820.721	211.054
820.849	205.151
820.977	213.129
821.105	212.796
821.233	202.387
821.362	221.484
821.490	203.656
821.618	216.796
821.746	213.667
821.874	211.323
822.002	201.075
822.130	207.978
822.258	213.742
822.387	212.462
822.515	210.742
822.643	207.387
822.771	204.280
822.899	216.656
823.027	202.011
823.155	211.742
823.283	217.409
823.412	212.473
823.540	200.301
823.668	200.839
823.796	203.495
823.924	205.785
824.052	204.376
824.180	208.462
824.308	206.043
824.437	217.731
824.565	203.011
824.693	195.258
824.821	198.419
824.949	203.957
825.077	203.753
825.205	199.215
825.333	207.935
825.462	204.312
825.590	196.817
825.718	196.742
825.846	202.075
825.974	203.430
826.102	197.925
826.230	200.258
826.358	206.011
826.487	199.505
826.615	197.559
826.743	191.280
826.871	202.151
826.999	198.602
827.127	196.828
827.255	201.398
827.383	195.968
827.512	194.280
827.640	200.419
827.768	217.817
827.896	193.215
828.024	197.183
828.152	197.548
828.280	194.151
828.408	196.430
828.537	199.925
828.665	193.022
828.793	191.409
828.921	191.065
829.049	193.215
829.177	192.366
829.305	192.151
829.433	192.677
829.562	188.871
829.690	196.527
829.818	194.301
829.946	191.129
830.074	187.849
830.202	187.505
830.330	189.000
830.458	183.452
830.587	200.441
830.715	188.516
830.843	189.409
830.971	190.355
831.099	193.839
831.227	208.882
831.355	187.935
831.483	192.419
831.612	192.269
831.740	186.602
831.868	187.108
831.996	196.505
832.124	187.301
832.252	197.742
832.380	188.419
832.508	188.032
832.637	190.452
832.765	194.978
832.893	188.527
833.021	183.860
833.149	180.624
833.277	191.763
833.405	193.731
833.533	183.419
833.662	192.183
833.790	184.269
833.918	190.516
834.046	181.903
834.174	182.097
834.302	192.731
834.430	180.892
834.558	182.742
834.687	190.419
834.815	185.011
834.943	183.817
835.071	189.849
835.199	188.215
835.327	182.194
835.455	195.828
835.583	177.742
835.712	181.710
835.840	184.495
835.968	178.108
836.096	191.946
836.224	175.473
836.352	189.548
836.480	177.011
836.608	180.753
836.737	189.097
836.865	181.581
836.993	191.226
837.121	192.516
837.249	182.946
837.377	180.591
837.505	176.527
837.633	179.699
837.762	183.978
837.890	182.301
838.018	183.892
838.146	179.882
838.274	177.978
838.402	179.957
838.530	194.645
838.658	184.957
838.787	188.355
838.915	173.688
839.043	186.591
839.171	176.333
839.299	184.409
839.427	199.968
839.555	183.720
839.683	175.505
839.812	178.194
839.940	177.011
840.068	180.226
840.196	203.968
840.324	195.344
840.452	184.376
840.580	176.602
840.708	169.108
840.837	174.247
840.965	175.538
841.093	174.086
841.221	177.785
841.349	178.151
841.477	170.280
841.605	169.903
841.733	176.108
841.862	185.290
841.990	177.699
842.118	171.828
842.246	176.505
842.374	167.935
842.502	184.301
842.630	175.796
842.758	171.376
842.887	184.667
843.015	186.226
843.143	171.839
843.271	176.860
843.399	171.581
843.527	174.581
843.655	170.333
843.783	173.011
843.912	173.269
844.040	168.914
844.168	175.731
844.296	186.699
844.424	181.312
844.552	182.376
844.680	177.527
844.808	174.323
844.937	171.806
845.065	176.043
845.193	190.570
845.321	175.796
845.449	177.065
845.577	176.376
845.705	172.613
845.833	172.108
845.962	182.258
846.090	174.054
846.218	186.645
846.346	181.333
846.474	176.968
846.602	168.032
846.730	176.011
846.858	173.301
846.987	171.258
847.115	181.570
847.243	183.753
847.371	162.129
847.499	170.344
847.627	172.247
847.755	174.613
847.883	181.828
848.012	184.495
848.140	164.419
848.268	170.258
848.396	174.688
848.524	175.452
848.652	170.559
848.780	165.323
848.908	174.022
849.037	171.796
849.165	167.505
849.293	176.237
849.421	171.183
849.549	172.548
849.677	164.376
849.805	179.226
849.933	167.785
850.062	176.516
850.190	174.828
850.318	170.581
850.446	173.032
850.574	170.172
850.702	168.065
850.830	160.935
850.958	166.022
851.087	173.097
851.215	165.398
851.343	170.108
851.471	172.839
851.599	175.376
851.727	175.581
851.855	169.602
851.983	176.860
852.112	165.226
852.240	181.634
852.368	182.129
852.496	170.581
852.624	170.043
852.752	177.398
852.880	176.634
853.008	166.839
853.137	173.355
853.265	174.290
853.393	168.032
853.521	164.194
853.649	173.602
853.777	167.860
853.905	164.720
854.033	167.925
854.162	164.591
854.290	168.161
854.418	184.538
854.546	200.505
854.674	187.634
854.802	170.602
854.930	164.935
855.058	172.452
855.187	166.753
855.315	180.258
855.443	168.753
855.571	172.194
855.699	179.860
855.827	164.194
855.955	163.376
856.083	167.634
856.212	169.011
856.340	170.140
856.468	168.161
856.596	167.581
856.724	170.022
856.852	185.882
856.980	164.527
857.108	163.355
857.237	162.118
857.365	174.473
857.493	173.516
857.621	165.839
857.749	163.591
857.877	168.688
858.005	165.505
858.133	166.667
858.262	161.462
858.390	163.387
858.518	163.688
858.646	172.247
858.774	159.957
858.902	162.602
859.030	167.935
859.158	166.559
859.287	167.570
859.415	170.914
859.543	165.086
859.671	166.839
859.799	176.839
859.927	166.000
860.055	163.054
860.183	158.731
860.312	162.108
860.440	167.742
860.568	157.452
860.696	174.387
860.824	179.054
860.952	160.269
861.080	168.054
861.208	168.333
861.337	164.258
861.465	178.376
861.593	169.075
861.721	171.634
861.849	169.613
861.977	161.108
862.105	166.108
862.233	167.591
862.362	160.882
862.490	162.011
862.618	165.355
862.746	161.946
862.874	169.441
863.002	170.376
863.130	166.892
863.258	167.108
863.387	169.903
863.515	164.935
863.643	169.763
863.771	165.796
863.899	167.065
864.027	171.591
864.155	197.860
864.283	165.323
864.412	159.613
864.540	166.849
864.668	159.538
864.796	161.355
864.924	163.828
865.052	158.204
865.180	178.495
865.308	168.258
865.437	164.731
865.565	157.656
865.693	159.806
865.821	160.602
865.949	180.108
866.077	166.753
866.205	164.667
866.333	167.925
866.462	155.634
866.590	168.559
866.718	167.602
866.846	159.946
866.974	165.957
867.102	157.473
867.230	172.204
867.358	161.989
867.487	170.237
867.615	174.710
867.743	161.828
867.871	176.742
867.999	162.731
868.127	173.419
868.255	180.602
868.383	152.215
868.512	165.978
868.640	162.645
868.768	162.968
868.896	171.839
869.024	159.172
869.152	162.914
869.280	158.495
869.408	157.602
869.537	160.634
869.665	157.989
869.793	164.215
869.921	162.441
870.049	154.839
870.177	161.097
870.305	154.914
870.433	160.344
870.562	164.215
870.690	162.548
870.818	165.774
870.946	158.903
871.074	155.054
871.202	160.860
871.330	152.505
871.458	163.462
871.587	164.290
871.715	161.871
871.843	164.624
871.971	169.624
872.099	153.075
872.227	167.581
872.355	160.720
872.483	155.215
872.612	166.022
872.740	163.774
872.868	161.140
872.996	164.613
873.124	167.226
873.252	159.161
873.380	154.194
873.508	167.957
873.637	169.581
873.765	159.075
873.893	160.828
874.021	163.355
874.149	158.215
874.277	161.054
874.405	170.806
874.533	169.430
874.662	159.290
874.790	167.011
874.918	159.441
875.046	156.301
875.174	157.226
875.302	157.011
875.430	154.989
875.558	162.333
875.687	162.903
875.815	163.108
875.943	163.946
876.071	159.914
876.199	167.086
876.327	159.495
876.455	162.097
876.583	157.796
876.712	166.699
876.840	160.989
876.968	161.022
877.096	159.516
877.224	161.591
877.352	152.011
877.480	159.720
877.608	173.667
877.737	164.108
877.865	159.462
877.993	161.968
878.121	167.495
878.249	162.183
878.377	159.548
878.505	162.699
878.633	163.376
878.762	157.828
878.890	162.645
879.018	167.237
879.146	158.763
879.274	192.215
879.402	164.269
879.530	160.183
879.658	159.054
879.787	162.645
879.915	156.882
880.043	157.183
880.171	198.624
880.299	162.892
880.427	160.032
880.555	154.774
880.683	164.247
880.812	158.871
880.940	154.269
881.068	162.204
881.196	156.258
881.324	156.226
881.452	157.183
881.580	163.559
881.708	154.946
881.837	163.688
881.965	158.978
882.093	153.043
882.221	155.430
882.349	156.763
882.477	159.667
882.605	160.258
882.733	163.505
882.862	154.645
882.990	166.000
883.118	167.591
883.246	169.892
883.374	159.452
883.502	169.043
883.630	165.968
883.758	156.075
883.887	165.118
884.015	162.183
884.143	163.161
884.271	157.140
884.399	158.032
884.527	162.538
884.655	158.731
884.783	166.398
884.912	186.806
885.040	168.118
885.168	159.495
885.296	170.978
885.424	160.032
885.552	154.387
885.680	174.237
885.808	169.054
885.937	167.473
886.065	165.387
886.193	158.957
886.321	157.430
886.449	159.516
886.577	156.516
886.705	170.645
886.833	149.430
886.962	160.581
887.090	161.720
887.218	159.290
887.346	157.075
887.474	158.065
887.602	158.011
887.730	154.118
887.858	155.495
887.987	156.935
888.115	165.301
888.243	157.667
888.371	170.849
888.499	159.194
888.627	158.086
888.755	164.720
888.883	160.806
889.012	164.677
889.140	155.763
889.268	162.634
889.396	154.710
889.524	166.989
889.652	151.376
889.780	158.065
889.908	161.011
890.037	168.140
890.165	157.602
890.293	164.484
890.421	158.871
890.549	150.495
890.677	155.247
890.805	161.667
890.933	160.161
891.062	156.237
891.190	163.817
891.318	156.398
891.446	160.828
891.574	154.323
891.702	156.366
891.830	152.237
891.958	167.452
892.087	165.925
892.215	163.140
892.343	164.312
892.471	166.710
892.599	156.817
892.727	162.301
892.855	182.677
892.983	154.516
893.112	157.280
893.240	169.118
893.368	155.387
893.496	167.108
893.624	156.398
893.752	182.194
893.880	154.548
894.008	165.817
894.137	155.559
894.265	163.903
894.393	158.387
894.521	166.817
894.649	159.849
894.777	151.194
894.905	203.204
895.033	158.538
895.162	159.602
895.290	166.387
895.418	159.785
895.546	193.505
895.674	162.935
895.802	200.054
895.930	164.387
896.058	155.763
896.187	158.151
896.315	155.645
896.443	169.667
896.571	182.441
896.699	156.688
896.827	157.656
896.955	158.785
897.083	163.108
897.212	158.581
897.340	155.548
897.468	158.097
897.596	161.269
897.724	155.280
897.852	154.000
897.980	151.258
898.108	165.677
898.237	158.108
898.365	155.516
898.493	166.753
898.621	162.355
898.749	157.527
898.877	158.699
899.005	156.860
899.133	161.989
899.262	173.946
899.390	156.667
899.518	163.452
899.646	153.581
899.774	155.462
899.902	156.086
900.030	169.409
900.158	157.828
900.287	160.957
900.415	156.097
900.543	163.559
900.671	167.161
900.799	155.882
900.927	156.935
901.055	166.430
901.183	169.484
901.312	168.677
901.440	154.269
901.568	157.667
901.696	156.075
901.824	153.161
901.952	155.312
902.080	166.656
902.208	161.258
902.337	170.581
902.465	156.215
902.593	174.634
902.721	187.387
902.849	180.065
902.977	159.129
903.105	160.774
903.233	155.097
903.362	153.656
903.490	167.043
903.618	158.495
903.746	151.957
903.874	158.645
904.002	158.935
904.130	173.011
904.258	152.559
904.387	168.043
904.515	153.742
904.643	163.280
904.771	155.355
904.899	160.161
905.027	161.538
905.155	154.892
905.283	151.785
905.412	167.882
905.540	157.495
905.668	157.430
905.796	161.839
905.924	161.075
906.052	157.989
906.180	167.624
906.308	158.968
906.437	157.634
906.565	163.720
906.693	170.043
906.821	155.806
906.949	159.419
907.077	151.602
907.205	163.473
907.333	152.925
907.462	151.925
907.590	160.613
907.718	159.731
907.846	165.054
907.974	156.301
908.102	157.387
908.230	161.806
908.358	154.914
908.487	158.817
908.615	171.763
908.743	170.215
908.871	161.645
908.999	157.473
909.127	152.237
909.255	169.247
909.383	156.828
909.512	155.516
909.640	173.946
909.768	159.151
909.896	165.118
910.024	166.989
910.152	168.688
910.280	167.667
910.408	154.366
910.537	155.914
910.665	168.280
910.793	163.204
910.921	161.645
911.049	169.366
911.177	173.645
911.305	158.903
911.433	158.376
911.562	166.860
911.690	167.398
911.818	165.409
911.946	163.409
912.074	168.731
912.202	165.194
912.330	178.667
912.458	158.258
912.587	163.785
912.715	168.022
912.843	174.720
912.971	169.226
913.099	183.043
913.227	172.032
913.355	167.602
913.483	179.763
913.612	172.796
913.740	187.097
913.868	167.237
