Ref_Start_90_Pol_at_750.00nm_cut_at_1184.50Y_01.dat
03.07.2023
10:44:36
cut middle at Y: 1184.50
top cursor: 1231 down cursor: 1138 mean of: 93 lines , 2560 datapoints
wavelength(nm)	intensity[arb. units]
585.996	10837.602
586.124	10618.774
586.252	10568.312
586.380	10599.000
586.508	10656.806
586.637	10751.398
586.765	10654.129
586.893	10705.409
587.021	10761.656
587.149	10766.699
587.277	10791.559
587.405	10782.247
587.533	10838.419
587.662	10866.204
587.790	10781.968
587.918	10790.376
588.046	10783.204
588.174	10792.075
588.302	10792.785
588.430	10801.484
588.558	10795.785
588.687	10836.301
588.815	10831.032
588.943	10793.484
589.071	10859.495
589.199	10847.204
589.327	10831.376
589.455	10900.108
589.583	10829.817
589.712	10844.355
589.840	10795.409
589.968	10816.559
590.096	10849.419
590.224	10778.495
590.352	10890.806
590.480	10766.516
590.608	10784.000
590.737	10833.688
590.865	10896.462
590.993	10762.849
591.121	10845.032
591.249	10798.280
591.377	10811.204
591.505	10903.957
591.633	10790.925
591.762	10825.871
591.890	10810.258
592.018	10883.591
592.146	10830.720
592.274	10864.806
592.402	10805.699
592.530	11011.000
592.658	10911.172
592.787	10878.957
592.915	10935.355
593.043	10827.935
593.171	10898.860
593.299	10887.538
593.427	10864.108
593.555	10894.871
593.683	10916.022
593.812	10898.871
593.940	10918.667
594.068	10929.398
594.196	10942.914
594.324	10934.419
594.452	11152.860
594.580	10990.118
594.708	11061.785
594.837	11030.505
594.965	11130.097
595.093	11052.796
595.221	11123.398
595.349	11119.215
595.477	11116.269
595.605	11121.731
595.733	11142.237
595.862	11146.677
595.990	11213.828
596.118	11245.247
596.246	11298.634
596.374	11220.742
596.502	11274.774
596.630	11266.484
596.758	11255.957
596.887	11264.419
597.015	11263.022
597.143	11275.581
597.271	11274.462
597.399	11320.710
597.527	11293.301
597.655	11308.957
597.783	11318.097
597.912	11327.301
598.040	11375.172
598.168	11291.419
598.296	11294.129
598.424	11475.957
598.552	11329.086
598.680	11296.871
598.808	11356.323
598.937	11299.140
599.065	11324.903
599.193	11349.097
599.321	11343.323
599.449	11297.570
599.577	11291.237
599.705	11321.688
599.833	11270.688
599.962	11268.699
600.090	11253.817
600.218	11242.613
600.346	11234.516
600.474	11202.634
600.602	11183.548
600.730	11201.290
600.858	11233.828
600.987	11285.785
601.115	11234.226
601.243	11328.806
601.371	11282.688
601.499	11263.022
601.627	11294.688
601.755	11269.097
601.883	11297.269
602.012	11160.226
602.140	11252.634
602.268	11261.161
602.396	11384.075
602.524	11306.677
602.652	11333.387
602.780	11310.806
602.908	11349.860
603.037	11425.441
603.165	11441.398
603.293	11413.215
603.421	11468.602
603.549	11462.516
603.677	11460.527
603.805	11481.011
603.933	11502.581
604.062	11538.871
604.190	11616.398
604.318	11629.129
604.446	11606.581
604.574	11665.667
604.702	11715.602
604.830	11649.323
604.958	11681.860
605.087	11745.376
605.215	11753.043
605.343	11890.903
605.471	11875.226
605.599	11870.183
605.727	11976.237
605.855	11923.828
605.983	11961.892
606.112	12007.376
606.240	12026.570
606.368	12005.946
606.496	11987.473
606.624	12105.022
606.752	12027.796
606.880	12112.849
607.008	12070.301
607.137	12080.258
607.265	12203.323
607.393	12151.688
607.521	12231.290
607.649	12147.591
607.777	12171.075
607.905	12179.043
608.033	12157.548
608.162	12149.882
608.290	12166.301
608.418	12245.925
608.546	12180.075
608.674	12214.194
608.802	12139.280
608.930	12167.247
609.058	12153.387
609.187	12138.559
609.315	12132.301
609.443	12090.559
609.571	12233.140
609.699	12085.774
609.827	12193.849
609.955	12059.613
610.083	11999.946
610.212	12040.344
610.340	12034.914
610.468	12020.075
610.596	12051.978
610.724	11979.613
610.852	12043.194
610.980	12001.290
611.108	11968.860
611.237	11983.634
611.365	11966.204
611.493	11936.935
611.621	11941.720
611.749	11964.957
611.877	11994.925
612.005	11977.527
612.133	12017.860
612.262	11977.656
612.390	12023.258
612.518	12063.129
612.646	11997.548
612.774	12060.452
612.902	12066.108
613.030	12075.172
613.158	12020.581
613.287	12114.699
613.415	12017.645
613.543	12053.301
613.671	12011.667
613.799	12050.989
613.927	12087.860
614.055	12110.398
614.183	12119.785
614.312	12061.796
614.440	12229.151
614.568	12173.280
614.696	12178.355
614.824	12152.699
614.952	12203.849
615.080	12222.462
615.208	12292.290
615.337	12342.968
615.465	12252.903
615.593	12331.677
615.721	12311.624
615.849	12394.226
615.977	12337.753
616.105	12380.226
616.233	12377.022
616.362	12428.183
616.490	12392.871
616.618	12442.398
616.746	12556.344
616.874	12516.978
617.002	12494.978
617.130	12533.387
617.258	12499.570
617.387	12483.656
617.515	12539.925
617.643	12519.882
617.771	12625.505
617.899	12553.613
618.027	12601.333
618.155	12597.527
618.283	12634.108
618.412	12610.699
618.540	12696.462
618.668	12589.548
618.796	12637.075
618.924	12577.720
619.052	12609.366
619.180	12559.118
619.308	12572.398
619.437	12593.753
619.565	12600.011
619.693	12573.301
619.821	12621.548
619.949	12562.473
620.077	12612.946
620.205	12617.946
620.333	12614.151
620.462	12561.645
620.590	12602.538
620.718	12602.968
620.846	12613.914
620.974	12584.043
621.102	12645.624
621.230	12617.559
621.358	12730.882
621.487	12559.667
621.615	12628.634
621.743	12514.527
621.871	12570.075
621.999	12520.849
622.127	12560.860
622.255	12493.398
622.383	12498.000
622.512	12502.538
622.640	12478.591
622.768	12577.258
622.896	12590.742
623.024	12542.602
623.152	12481.989
623.280	12586.699
623.408	12514.011
623.537	12541.559
623.665	12480.301
623.793	12568.161
623.921	12519.978
624.049	12505.366
624.177	12477.108
624.305	12465.333
624.433	12487.151
624.562	12503.398
624.690	12603.935
624.818	12423.925
624.946	12468.065
625.074	12423.097
625.202	12415.624
625.330	12443.065
625.458	12538.548
625.587	12406.226
625.715	12475.247
625.843	12440.957
625.971	12455.043
626.099	12444.366
626.227	12429.022
626.355	12362.376
626.483	12444.129
626.612	12388.226
626.740	12413.409
626.868	12412.516
626.996	12466.817
627.124	12407.495
627.252	12398.817
627.380	12407.430
627.508	12358.495
627.637	12447.828
627.765	12437.570
627.893	12449.140
628.021	12485.333
628.149	12414.484
628.277	12499.699
628.405	12461.129
628.533	12438.430
628.662	12439.290
628.790	12521.731
628.918	12464.097
629.046	12575.226
629.174	12451.011
629.302	12476.731
629.430	12401.957
629.558	12493.570
629.687	12400.280
629.815	12446.753
629.943	12568.581
630.071	12505.452
630.199	12495.054
630.327	12495.237
630.455	12536.753
630.583	12532.903
630.712	12535.366
630.840	12541.065
630.968	12530.366
631.096	12520.280
631.224	12522.978
631.352	12652.194
631.480	12575.505
631.608	12718.624
631.737	12540.710
631.865	12672.710
631.993	12615.753
632.121	12750.570
632.249	12597.215
632.377	12591.720
632.505	12604.398
632.633	12627.978
632.762	12564.624
632.890	12589.527
633.018	12640.118
633.146	12600.667
633.274	12585.323
633.402	12572.398
633.530	12557.312
633.658	12600.495
633.787	12557.409
633.915	12560.366
634.043	12575.796
634.171	12539.000
634.299	12566.581
634.427	12514.118
634.555	12753.333
634.683	12505.688
634.812	12495.172
634.940	12478.548
635.068	12502.688
635.196	12480.054
635.324	12469.763
635.452	12470.247
635.580	12555.957
635.708	12443.129
635.837	12461.591
635.965	12426.581
636.093	12361.634
636.221	12346.430
636.349	12289.957
636.477	12290.968
636.605	12345.656
636.733	12265.828
636.862	12227.409
636.990	12262.774
637.118	12228.774
637.246	12174.645
637.374	12342.215
637.502	12121.559
637.630	12104.527
637.758	12067.710
637.887	12035.978
638.015	12180.538
638.143	12092.290
638.271	12012.151
638.399	11980.086
638.527	11908.290
638.655	11940.290
638.783	11939.892
638.912	11973.032
639.040	11870.022
639.168	11832.957
639.296	11785.258
639.424	11865.441
639.552	11781.763
639.680	11876.237
639.808	11748.011
639.937	11722.075
640.065	11688.699
640.193	11668.312
640.321	11755.075
640.449	11777.333
640.577	11667.129
640.705	11682.989
640.833	11656.215
640.962	11738.247
641.090	11581.086
641.218	11584.570
641.346	11688.194
641.474	11609.860
641.602	11609.140
641.730	11547.000
641.858	11548.473
641.987	11531.925
642.115	11713.269
642.243	11591.677
642.371	11743.570
642.499	11554.774
642.627	11642.301
642.755	11528.215
642.883	11555.656
643.012	11547.796
643.140	11594.323
643.268	11584.699
643.396	11491.301
643.524	11537.376
643.652	11600.667
643.780	11504.581
643.908	11482.462
644.037	11582.774
644.165	11588.742
644.293	11680.774
644.421	11452.462
644.549	11486.108
644.677	11525.097
644.805	11502.871
644.933	11464.742
645.062	11496.097
645.190	11608.505
645.318	11492.151
645.446	11410.516
645.574	11394.538
645.702	11461.097
645.830	11460.677
645.958	11418.613
646.087	11382.989
646.215	11384.613
646.343	11366.237
646.471	11498.495
646.599	11342.419
646.727	11327.763
646.855	11366.667
646.983	11328.065
647.112	11402.462
647.240	11319.817
647.368	11360.978
647.496	11325.441
647.624	11271.860
647.752	11258.247
647.880	11234.581
648.008	11245.935
648.137	11268.753
648.265	11217.559
648.393	11293.892
648.521	11199.645
648.649	11311.312
648.777	11260.409
648.905	11170.882
649.033	11214.011
649.162	11052.871
649.290	11006.054
649.418	11021.957
649.546	11188.172
649.674	10991.355
649.802	10986.763
649.930	10949.882
650.058	10916.882
650.187	10973.753
650.315	10911.731
650.443	10906.946
650.571	10863.473
650.699	10813.677
650.827	10799.624
650.955	10774.118
651.083	10837.742
651.212	10766.108
651.340	10739.634
651.468	10672.097
651.596	10681.710
651.724	10677.333
651.852	10636.204
651.980	10642.935
652.108	10599.817
652.237	10592.667
652.365	10559.000
652.493	10522.344
652.621	10482.925
652.749	10513.957
652.877	10480.366
653.005	10489.538
653.133	10436.538
653.262	10405.828
653.390	10397.032
653.518	10469.731
653.646	10321.290
653.774	10304.280
653.902	10366.237
654.030	10338.892
654.158	10235.075
654.287	10244.645
654.415	10240.215
654.543	10227.763
654.671	10168.527
654.799	10154.677
654.927	10123.699
655.055	10096.591
655.183	10078.935
655.312	10076.409
655.440	10023.763
655.568	10028.688
655.696	10073.290
655.824	10010.172
655.952	10014.882
656.080	9911.796
656.208	9948.430
656.337	9941.398
656.465	10079.731
656.593	9896.473
656.721	9942.645
656.849	9946.151
656.977	9766.097
657.105	9834.774
657.233	9819.731
657.362	9847.376
657.490	9795.806
657.618	9791.753
657.746	9742.892
657.874	9664.086
658.002	9627.441
658.130	9600.097
658.258	9600.344
658.387	9513.968
658.515	9526.731
658.643	9492.000
658.771	9542.172
658.899	9447.075
659.027	9480.000
659.155	9461.140
659.283	9398.817
659.412	9416.527
659.540	9399.355
659.668	9422.720
659.796	9430.882
659.924	9368.602
660.052	9435.215
660.180	9307.333
660.308	9401.871
660.437	9377.624
660.565	9340.581
660.693	9222.054
660.821	9409.172
660.949	9204.699
661.077	9242.161
661.205	9374.032
661.333	9225.925
661.462	9166.161
661.590	9284.269
661.718	9161.559
661.846	9159.742
661.974	9094.935
662.102	9104.516
662.230	9130.269
662.358	8973.032
662.487	9030.849
662.615	9003.247
662.743	9037.957
662.871	8992.710
662.999	8931.430
663.127	8943.419
663.255	8921.602
663.383	9006.011
663.512	8840.903
663.640	8886.720
663.768	8879.839
663.896	8827.742
664.024	8793.882
664.152	8791.290
664.280	8877.258
664.408	8755.301
664.537	8721.559
664.665	8764.441
664.793	8756.505
664.921	8693.774
665.049	8765.806
665.177	8641.462
665.305	8659.624
665.433	8645.151
665.562	8827.215
665.690	8639.290
665.818	8784.484
665.946	8572.978
666.074	8547.688
666.202	8560.161
666.330	8537.935
666.458	9048.892
666.587	8466.548
666.715	8507.785
666.843	8471.677
666.971	8493.065
667.099	8473.570
667.227	8525.054
667.355	8515.677
667.483	8408.817
667.612	8450.344
667.740	8435.828
667.868	8380.957
667.996	8364.645
668.124	8447.269
668.252	8483.495
668.380	8316.882
668.508	8348.086
668.637	8294.903
668.765	8322.688
668.893	8313.269
669.021	8234.753
669.149	8308.785
669.277	8190.989
669.405	8312.183
669.533	8303.323
669.662	8191.065
669.790	8195.677
669.918	8204.183
670.046	8325.387
670.174	8089.613
670.302	8095.430
670.430	8077.849
670.558	8113.011
670.687	8203.645
670.815	8045.355
670.943	8063.860
671.071	7987.516
671.199	7992.548
671.327	7975.505
671.455	8011.194
671.583	7961.054
671.712	7906.946
671.840	7955.129
671.968	8052.108
672.096	8013.419
672.224	7824.860
672.352	7803.215
672.480	7765.828
672.608	7838.032
672.737	7762.000
672.865	7691.301
672.993	7717.860
673.121	7659.839
673.249	7677.946
673.377	7614.075
673.505	7595.172
673.633	7640.011
673.762	7565.118
673.890	7561.430
674.018	7563.667
674.146	7510.903
674.274	7517.624
674.402	7542.280
674.530	7473.860
674.658	7412.075
674.787	7424.441
674.915	7546.312
675.043	7387.645
675.171	7386.710
675.299	7306.527
675.427	7302.559
675.555	7271.860
675.683	7309.247
675.812	7263.000
675.940	7239.968
676.068	7162.065
676.196	7209.204
676.324	7140.011
676.452	7094.108
676.580	7083.946
676.708	7076.796
676.837	7068.559
676.965	7127.892
677.093	7179.172
677.221	7043.957
677.349	6953.602
677.477	7027.484
677.605	6899.344
677.733	6922.892
677.862	6903.720
677.990	6869.409
678.118	6928.430
678.246	6859.548
678.374	6897.452
678.502	6797.570
678.630	6712.118
678.758	6785.624
678.887	6902.043
679.015	6686.828
679.143	6658.699
679.271	6638.505
679.399	6662.022
679.527	6651.645
679.655	6695.484
679.783	6565.828
679.912	6556.301
680.040	6740.731
680.168	6515.129
680.296	6542.204
680.424	6489.849
680.552	6444.699
680.680	6452.065
680.808	6432.634
680.937	6370.978
681.065	6452.462
681.193	6380.785
681.321	6333.452
681.449	6381.204
681.577	6319.753
681.705	6273.011
681.833	6315.473
681.962	6283.591
682.090	6229.215
682.218	6274.548
682.346	6250.022
682.474	6211.968
682.602	6165.548
682.730	6220.409
682.858	6145.172
682.987	6144.871
683.115	6199.559
683.243	6134.763
683.371	6140.742
683.499	6073.000
683.627	6127.398
683.755	6056.839
683.883	6036.290
684.012	6078.602
684.140	6005.140
684.268	6002.441
684.396	6062.194
684.524	5988.323
684.652	6000.323
684.780	5990.957
684.908	5976.806
685.037	5982.204
685.165	5959.237
685.293	6000.086
685.421	5942.828
685.549	5925.054
685.677	5869.677
685.805	5929.720
685.933	5877.785
686.062	5892.892
686.190	5846.753
686.318	5856.452
686.446	5791.806
686.574	5768.806
686.702	5870.667
686.830	5731.602
686.958	5830.538
687.087	5721.161
687.215	5732.484
687.343	5745.849
687.471	5875.462
687.599	5649.344
687.727	5642.656
687.855	5645.849
687.983	5576.570
688.112	5654.785
688.240	5598.430
688.368	5614.828
688.496	5588.172
688.624	5565.097
688.752	5685.645
688.880	5528.151
689.008	5551.344
689.137	5545.785
689.265	5486.505
689.393	5472.989
689.521	5497.548
689.649	5553.634
689.777	5478.151
689.905	5529.699
690.033	5412.871
690.162	5385.989
690.290	5399.634
690.418	5357.409
690.546	5407.462
690.674	5410.323
690.802	5411.667
690.930	5348.860
691.058	5330.538
691.187	5288.925
691.315	5281.118
691.443	5245.957
691.571	5276.753
691.699	5212.065
691.827	5192.527
691.955	5216.140
692.083	5163.333
692.212	5178.785
692.340	5174.763
692.468	5173.075
692.596	5170.301
692.724	5115.333
692.852	5135.269
692.980	5131.065
693.108	5140.172
693.237	5030.527
693.365	5019.946
693.493	5023.247
693.621	5033.538
693.749	4994.688
693.877	5054.215
694.005	4933.161
694.133	4947.817
694.262	4993.430
694.390	4885.086
694.518	4917.301
694.646	4907.247
694.774	4850.462
694.902	4853.527
695.030	4838.290
695.158	4812.419
695.287	4835.387
695.415	4822.366
695.543	4786.075
695.671	4713.968
695.799	4844.699
695.927	4747.484
696.055	4743.183
696.183	4666.699
696.312	4825.473
696.440	4694.903
696.568	4698.559
696.696	4603.946
696.824	4578.108
696.952	4592.301
697.080	4580.000
697.208	4530.355
697.337	4528.591
697.465	4516.172
697.593	4470.237
697.721	4588.247
697.849	4464.538
697.977	4510.677
698.105	4530.624
698.233	4476.914
698.362	4367.387
698.490	4514.871
698.618	4356.516
698.746	4330.849
698.874	4397.634
699.002	4354.462
699.130	4361.645
699.258	4313.376
699.387	4254.140
699.515	4299.247
699.643	4304.462
699.771	4342.731
699.899	4222.753
700.027	4180.925
700.155	4246.441
700.283	4143.656
700.412	4154.323
700.540	4167.376
700.668	4230.720
700.796	4087.570
700.924	4131.075
701.052	4119.505
701.180	4098.065
701.308	4018.656
701.437	4021.806
701.565	4014.581
701.693	4045.473
701.821	4197.570
701.949	3985.548
702.077	3973.602
702.205	4040.161
702.333	3942.419
702.462	3915.656
702.590	3993.968
702.718	3890.387
702.846	4069.086
702.974	3851.054
703.102	3837.839
703.230	3809.925
703.358	3824.473
703.487	3814.656
703.615	3790.398
703.743	3774.333
703.871	3763.570
703.999	3743.505
704.127	3740.398
704.255	3703.602
704.383	3730.710
704.512	3768.108
704.640	3743.247
704.768	3778.022
704.896	3667.613
705.024	3618.968
705.152	3653.914
705.280	3676.473
705.408	3583.065
705.537	3559.011
705.665	3588.624
705.793	3542.785
705.921	3540.570
706.049	3503.796
706.177	3532.763
706.305	3473.892
706.433	3499.785
706.562	3494.183
706.690	3485.269
706.818	3471.989
706.946	3421.699
707.074	3396.731
707.202	3364.860
707.330	3384.903
707.458	3348.258
707.587	3316.559
707.715	3360.860
707.843	3368.742
707.971	3358.075
708.099	3272.226
708.227	3281.957
708.355	3253.839
708.483	3230.699
708.612	3261.312
708.740	3187.849
708.868	3213.656
708.996	3275.387
709.124	3275.409
709.252	3186.075
709.380	3215.935
709.508	3155.011
709.637	3184.032
709.765	3168.495
709.893	3187.978
710.021	3091.591
710.149	3219.333
710.277	3087.387
710.405	3089.000
710.533	3091.849
710.662	3070.086
710.790	3185.903
710.918	3025.656
711.046	3070.925
711.174	3008.054
711.302	3049.968
711.430	3015.871
711.558	3061.323
711.687	3014.430
711.815	2982.656
711.943	2976.032
712.071	2956.269
712.199	2988.000
712.327	3043.978
712.455	2916.312
712.583	3083.645
712.712	2929.645
712.840	2961.441
712.968	2889.828
713.096	2896.538
713.224	2895.097
713.352	2879.505
713.480	2847.581
713.608	2829.602
713.737	2811.946
713.865	2877.774
713.993	2829.731
714.121	2826.710
714.249	2787.570
714.377	2791.602
714.505	2785.581
714.633	2779.828
714.762	2772.269
714.890	2758.075
715.018	2777.333
715.146	2785.462
715.274	2757.882
715.402	2734.194
715.530	2732.269
715.658	2743.882
715.787	2721.204
715.915	2774.645
716.043	2708.172
716.171	2755.484
716.299	2683.323
716.427	2717.108
716.555	2659.226
716.683	2673.366
716.812	2660.763
716.940	2654.774
717.068	2650.065
717.196	2713.527
717.324	2651.806
717.452	2623.387
717.580	2654.742
717.708	2608.785
717.837	2602.204
717.965	2604.161
718.093	2605.677
718.221	2596.613
718.349	2588.570
718.477	2566.441
718.605	2595.097
718.733	2553.892
718.862	2563.290
718.990	2540.215
719.118	2557.527
719.246	2510.989
719.374	2513.032
719.502	2512.527
719.630	2533.161
719.758	2478.624
719.887	2461.591
720.015	2480.452
720.143	2492.828
720.271	2433.602
720.399	2464.731
720.527	2415.043
720.655	2453.086
720.783	2410.419
720.912	2398.323
721.040	2385.366
721.168	2394.516
721.296	2371.452
721.424	2373.548
721.552	2353.323
721.680	2361.688
721.808	2370.086
721.937	2348.677
722.065	2348.172
722.193	2313.796
722.321	2318.108
722.449	2296.505
722.577	2281.785
722.705	2278.763
722.833	2280.032
722.962	2271.215
723.090	2258.677
723.218	2239.022
723.346	2254.430
723.474	2223.935
723.602	2226.366
723.730	2210.796
723.858	2195.591
723.987	2206.000
724.115	2197.548
724.243	2202.957
724.371	2154.366
724.499	2165.355
724.627	2157.699
724.755	2162.914
724.883	2172.333
725.012	2158.022
725.140	2142.118
725.268	2105.903
725.396	2102.828
725.524	2130.194
725.652	2085.591
725.780	2094.602
725.908	2077.656
726.037	2044.484
726.165	2062.892
726.293	2041.419
726.421	2044.871
726.549	2037.613
726.677	2025.043
726.805	1999.495
726.933	2016.742
727.062	2003.312
727.190	1989.968
727.318	1975.473
727.446	1973.570
727.574	1966.290
727.702	1952.645
727.830	1963.957
727.958	1944.161
728.087	1947.935
728.215	1938.882
728.343	1914.366
728.471	1913.172
728.599	1922.065
728.727	1899.376
728.855	1900.387
728.983	1881.226
729.112	1867.602
729.240	1854.871
729.368	1850.570
729.496	1859.860
729.624	1858.312
729.752	1859.419
729.880	1854.914
730.008	1844.613
730.137	1823.366
730.265	1816.161
730.393	1803.430
730.521	1795.710
730.649	1780.978
730.777	1754.806
730.905	1757.366
731.033	1715.118
731.162	1744.409
731.290	1760.688
731.418	1749.645
731.546	1747.495
731.674	1734.828
731.802	1721.000
731.930	1720.118
732.058	1678.763
732.187	1686.140
732.315	1695.613
732.443	1701.022
732.571	1694.495
732.699	1694.043
732.827	1715.538
732.955	1710.677
733.083	1685.634
733.212	1673.742
733.340	1673.032
733.468	1648.226
733.596	1632.430
733.724	1634.839
733.852	1641.280
733.980	1620.323
734.108	1644.860
734.237	1626.065
734.365	1614.559
734.493	1599.527
734.621	1604.495
734.749	1605.720
734.877	1598.581
735.005	1582.247
735.133	1579.860
735.262	1583.720
735.390	1567.151
735.518	1578.688
735.646	1559.570
735.774	1569.710
735.902	1558.000
736.030	1543.323
736.158	1544.624
736.287	1550.495
736.415	1553.978
736.543	1521.000
736.671	1522.989
736.799	1519.763
736.927	1513.656
737.055	1524.839
737.183	1500.860
737.312	1483.011
737.440	1501.118
737.568	1484.355
737.696	1492.172
737.824	1490.559
737.952	1732.892
738.080	1465.258
738.208	1469.903
738.337	1465.065
738.465	1465.323
738.593	1440.484
738.721	1444.946
738.849	1446.968
738.977	1438.301
739.105	1449.151
739.233	1438.366
739.362	1427.462
739.490	1411.118
739.618	1421.333
739.746	1410.129
739.874	1399.796
740.002	1412.484
740.130	1379.882
740.258	1383.989
740.387	1396.806
740.515	1386.828
740.643	1359.108
740.771	1377.914
740.899	1348.634
741.027	1366.710
741.155	1367.204
741.283	1353.108
741.412	1372.204
741.540	1345.161
741.668	1340.366
741.796	1343.957
741.924	1332.215
742.052	1321.387
742.180	1332.215
742.308	1307.108
742.437	1309.882
742.565	1318.452
742.693	1316.839
742.821	1306.022
742.949	1288.968
743.077	1274.258
743.205	1271.817
743.333	1276.484
743.462	1269.871
743.590	1259.054
743.718	1267.624
743.846	1260.409
743.974	1284.688
744.102	1255.151
744.230	1240.323
744.358	1257.710
744.487	1231.086
744.615	1218.054
744.743	1240.634
744.871	1234.914
744.999	1216.849
745.127	1220.505
745.255	1192.505
745.383	1201.366
745.512	1187.602
745.640	1194.613
745.768	1190.763
745.896	1185.860
746.024	1182.226
746.152	1182.151
746.280	1172.645
746.408	1182.151
746.537	1162.172
746.665	1172.280
746.793	1159.269
746.921	1162.000
747.049	1154.462
747.177	1150.763
747.305	1156.634
747.433	1153.559
747.562	1138.430
747.690	1145.065
747.818	1123.957
747.946	1129.043
748.074	1116.237
748.202	1128.011
748.330	1115.839
748.458	1105.935
748.587	1110.301
748.715	1103.796
748.843	1090.624
748.971	1087.516
749.099	1099.559
749.227	1101.183
749.355	1113.075
749.483	1062.452
749.612	1099.968
749.740	1088.344
749.868	1072.903
749.996	1071.140
750.124	1090.097
750.252	1062.806
750.380	1055.280
750.508	1069.140
750.637	1053.892
750.765	1047.129
750.893	1047.624
751.021	1034.914
751.149	1044.946
751.277	1024.387
751.405	1016.129
751.533	1048.613
751.662	1017.817
751.790	1012.505
751.918	1016.441
752.046	1007.559
752.174	997.882
752.302	995.839
752.430	977.989
752.558	986.495
752.687	991.677
752.815	981.376
752.943	986.237
753.071	980.075
753.199	974.731
753.327	1005.011
753.455	955.301
753.583	956.032
753.712	958.914
753.840	970.366
753.968	956.086
754.096	943.925
754.224	944.366
754.352	930.828
754.480	954.538
754.608	936.548
754.737	938.022
754.865	945.903
754.993	948.828
755.121	926.903
755.249	914.613
755.377	892.237
755.505	917.118
755.633	904.677
755.762	905.161
755.890	916.667
756.018	894.946
756.146	886.462
756.274	876.699
756.402	880.097
756.530	899.720
756.658	877.957
756.787	873.258
756.915	861.892
757.043	865.817
757.171	864.817
757.299	878.581
757.427	859.237
757.555	846.323
757.683	849.688
757.812	863.032
757.940	847.731
758.068	834.118
758.196	834.204
758.324	831.108
758.452	839.172
758.580	831.065
758.708	832.968
758.837	840.710
758.965	838.409
759.093	827.957
759.221	803.290
759.349	806.312
759.477	807.065
759.605	794.828
759.733	801.914
759.862	792.280
759.990	791.366
760.118	795.301
760.246	801.022
760.374	785.151
760.502	781.710
760.630	769.613
760.758	772.903
760.887	774.559
761.015	769.086
761.143	772.527
761.271	754.753
761.399	757.892
761.527	767.548
761.655	759.011
761.783	744.140
761.912	757.011
762.040	762.806
762.168	733.581
762.296	736.022
762.424	751.022
762.552	739.280
762.680	732.237
762.808	752.215
762.937	733.430
763.065	723.409
763.193	724.624
763.321	719.645
763.449	705.516
763.577	710.624
763.705	725.602
763.833	712.957
763.962	698.215
764.090	698.538
764.218	698.086
764.346	694.892
764.474	700.441
764.602	680.742
764.730	695.129
764.858	692.172
764.987	686.118
765.115	675.215
765.243	674.656
765.371	676.677
765.499	664.591
765.627	676.903
765.755	669.409
765.883	676.258
766.012	666.527
766.140	656.344
766.268	655.753
766.396	653.387
766.524	655.667
766.652	648.828
766.780	645.043
766.908	657.129
767.037	662.935
767.165	639.677
767.293	649.161
767.421	642.484
767.549	630.742
767.677	651.667
767.805	626.355
767.933	633.710
768.062	622.892
768.190	620.516
768.318	617.323
768.446	612.452
768.574	604.667
768.702	616.398
768.830	606.667
768.958	602.602
769.087	605.720
769.215	606.344
769.343	603.849
769.471	607.989
769.599	598.731
769.727	591.462
769.855	583.699
769.983	624.763
770.112	592.333
770.240	580.989
770.368	581.667
770.496	573.527
770.624	581.785
770.752	568.075
770.880	585.570
771.008	568.484
771.137	572.290
771.265	559.409
771.393	556.097
771.521	564.323
771.649	573.280
771.777	599.763
771.905	627.022
772.033	597.667
772.162	552.925
772.290	550.828
772.418	555.215
772.546	550.140
772.674	549.129
772.802	541.441
772.930	547.806
773.058	539.903
773.187	540.656
773.315	532.430
773.443	546.022
773.571	539.290
773.699	530.054
773.827	540.710
773.955	553.344
774.083	542.269
774.212	525.839
774.340	524.419
774.468	519.312
774.596	524.957
774.724	529.699
774.852	525.892
774.980	515.441
775.108	509.785
775.237	511.731
775.365	509.301
775.493	514.355
775.621	503.333
775.749	502.516
775.877	515.796
776.005	513.753
776.133	494.323
776.262	498.398
776.390	503.022
776.518	494.387
776.646	501.860
776.774	496.935
776.902	487.430
777.030	485.935
777.158	491.720
777.287	501.495
777.415	479.968
777.543	480.495
777.671	486.075
777.799	485.613
777.927	491.656
778.055	487.151
778.183	480.441
778.312	478.258
778.440	478.043
778.568	494.473
778.696	478.667
778.824	478.495
778.952	478.495
779.080	469.903
779.208	475.226
779.337	467.118
779.465	482.591
779.593	465.656
779.721	465.570
779.849	460.806
779.977	463.688
780.105	460.140
780.233	465.559
780.362	459.688
780.490	458.882
780.618	451.946
780.746	447.151
780.874	452.452
781.002	459.828
781.130	449.183
781.258	447.247
781.387	439.957
781.515	453.204
781.643	439.430
781.771	443.742
781.899	453.591
782.027	443.032
782.155	441.183
782.283	435.441
782.412	445.591
782.540	442.151
782.668	437.043
782.796	436.656
782.924	447.473
783.052	447.860
783.180	430.387
783.308	432.140
783.437	422.441
783.565	435.591
783.693	428.516
783.821	426.624
783.949	428.462
784.077	429.634
784.205	428.828
784.333	418.376
784.462	421.774
784.590	416.151
784.718	412.828
784.846	419.742
784.974	435.914
785.102	415.989
785.230	411.323
785.358	413.935
785.487	410.129
785.615	409.097
785.743	407.591
785.871	416.452
785.999	417.344
786.127	409.613
786.255	395.032
786.383	395.355
786.512	403.301
786.640	405.022
786.768	392.108
786.896	393.624
787.024	386.839
787.152	391.925
787.280	413.000
787.408	394.204
787.537	405.258
787.665	397.376
787.793	390.688
787.921	391.882
788.049	388.710
788.177	388.011
788.305	387.538
788.433	384.849
788.562	377.344
788.690	387.194
788.818	378.366
788.946	374.280
789.074	372.441
789.202	376.000
789.330	373.581
789.458	389.344
789.587	374.204
789.715	382.086
789.843	377.237
789.971	377.398
790.099	369.538
790.227	363.129
790.355	371.710
790.483	362.892
790.612	370.871
790.740	370.785
790.868	368.258
790.996	375.925
791.124	381.204
791.252	372.785
791.380	356.892
791.508	366.054
791.637	365.527
791.765	354.925
791.893	357.882
792.021	366.699
792.149	362.581
792.277	362.559
792.405	352.806
792.533	361.731
792.662	354.774
792.790	357.591
792.918	359.731
793.046	347.355
793.174	349.796
793.302	354.333
793.430	343.484
793.558	361.097
793.687	353.645
793.815	341.462
793.943	362.226
794.071	333.613
794.199	339.430
794.327	348.366
794.455	357.925
794.583	350.097
794.712	345.570
794.840	331.699
794.968	343.634
795.096	352.333
795.224	325.892
795.352	375.301
795.480	328.720
795.608	331.151
795.737	331.387
795.865	326.505
795.993	333.613
796.121	328.473
796.249	329.527
796.377	329.753
796.505	330.430
796.633	333.742
796.762	322.161
796.890	321.323
797.018	332.054
797.146	328.892
797.274	327.839
797.402	320.613
797.530	315.462
797.658	316.527
797.787	334.452
797.915	322.892
798.043	313.849
798.171	324.591
798.299	312.602
798.427	322.473
798.555	327.903
798.683	314.785
798.812	348.677
798.940	360.742
799.068	352.473
799.196	315.903
799.324	321.108
799.452	304.978
799.580	314.387
799.708	310.484
799.837	309.581
799.965	306.022
800.093	308.333
800.221	302.269
800.349	304.344
800.477	304.839
800.605	297.710
800.733	292.043
800.862	306.495
800.990	300.183
801.118	294.473
801.246	302.183
801.374	305.441
801.502	297.065
801.630	297.828
801.758	296.731
801.887	294.301
802.015	296.075
802.143	286.903
802.271	297.215
802.399	288.237
802.527	283.247
802.655	294.731
802.783	287.935
802.912	287.065
803.040	287.258
803.168	283.849
803.296	294.742
803.424	286.484
803.552	289.989
803.680	285.667
803.808	285.613
803.937	282.204
804.065	285.118
804.193	285.871
804.321	289.258
804.449	302.247
804.577	283.839
804.705	296.527
804.833	280.323
804.962	276.194
805.090	282.828
805.218	276.925
805.346	271.645
805.474	282.516
805.602	279.968
805.730	288.086
805.858	268.473
805.987	269.581
806.115	274.032
806.243	283.957
806.371	272.538
806.499	271.978
806.627	263.247
806.755	271.344
806.883	267.473
807.012	268.226
807.140	275.516
807.268	260.516
807.396	267.226
807.524	264.086
807.652	272.570
807.780	267.731
807.908	268.108
808.037	279.409
808.165	276.634
808.293	258.409
808.421	262.140
808.549	260.548
808.677	260.398
808.805	278.194
808.933	265.742
809.062	261.441
809.190	272.763
809.318	265.452
809.446	260.333
809.574	268.753
809.702	258.258
809.830	250.720
809.958	262.409
810.087	263.280
810.215	253.849
810.343	257.946
810.471	254.742
810.599	248.172
810.727	259.043
810.855	249.129
810.983	259.183
811.112	257.656
811.240	256.204
811.368	254.903
811.496	259.828
811.624	253.581
811.752	255.473
811.880	261.785
812.008	258.086
812.137	265.258
812.265	248.903
812.393	252.656
812.521	247.720
812.649	253.882
812.777	245.785
812.905	246.516
813.033	252.452
813.162	245.914
813.290	243.484
813.418	248.312
813.546	245.935
813.674	243.376
813.802	244.194
813.930	244.968
814.058	240.097
814.187	245.667
814.315	243.333
814.443	242.387
814.571	241.215
814.699	232.882
814.827	243.817
814.955	246.118
815.083	234.656
815.212	242.892
815.340	233.312
815.468	248.129
815.596	236.108
815.724	242.774
815.852	243.247
815.980	239.452
816.108	236.688
816.237	241.634
816.365	253.849
816.493	235.849
816.621	245.914
816.749	227.548
816.877	304.591
817.005	251.194
817.133	241.204
817.262	241.258
817.390	231.484
817.518	238.366
817.646	223.591
817.774	224.763
817.902	223.183
818.030	223.011
818.158	235.667
818.287	230.796
818.415	225.086
818.543	224.204
818.671	230.204
818.799	227.957
818.927	223.559
819.055	237.903
819.183	227.871
819.312	246.688
819.440	226.430
819.568	221.602
819.696	227.484
819.824	226.645
819.952	222.806
820.080	224.312
820.208	223.355
820.337	231.355
820.465	225.925
820.593	224.989
820.721	219.366
820.849	218.323
820.977	221.849
821.105	219.194
821.233	211.613
821.362	224.301
821.490	210.559
821.618	223.452
821.746	218.946
821.874	221.935
822.002	209.376
822.130	214.065
822.258	223.548
822.387	214.645
822.515	223.054
822.643	215.430
822.771	211.172
822.899	223.312
823.027	212.602
823.155	220.430
823.283	226.742
823.412	227.989
823.540	210.086
823.668	209.495
823.796	216.613
823.924	211.129
824.052	210.215
824.180	220.989
824.308	219.355
824.437	224.882
824.565	215.860
824.693	205.011
824.821	211.140
824.949	217.806
825.077	216.269
825.205	206.247
825.333	211.849
825.462	211.978
825.590	208.710
825.718	207.935
825.846	209.054
825.974	215.312
826.102	207.516
826.230	209.097
826.358	215.398
826.487	205.022
826.615	208.785
826.743	199.656
826.871	212.495
826.999	204.677
827.127	206.978
827.255	208.892
827.383	204.538
827.512	206.828
827.640	213.097
827.768	226.849
827.896	200.688
828.024	209.602
828.152	202.613
828.280	201.602
828.408	202.194
828.537	206.731
828.665	201.183
828.793	201.097
828.921	203.441
829.049	205.430
829.177	203.108
829.305	198.290
829.433	198.118
829.562	199.871
829.690	203.828
829.818	202.828
829.946	199.387
830.074	196.935
830.202	196.301
830.330	197.785
830.458	195.129
830.587	204.667
830.715	193.452
830.843	195.559
830.971	201.731
831.099	199.946
831.227	220.817
831.355	192.484
831.483	199.742
831.612	196.946
831.740	192.344
831.868	196.914
831.996	205.720
832.124	197.925
832.252	204.215
832.380	194.763
832.508	193.312
832.637	197.710
832.765	201.204
832.893	198.075
833.021	195.258
833.149	191.376
833.277	195.011
833.405	201.957
833.533	193.989
833.662	201.054
833.790	193.785
833.918	199.000
834.046	190.892
834.174	192.387
834.302	196.914
834.430	187.054
834.558	192.043
834.687	201.269
834.815	195.280
834.943	186.452
835.071	198.065
835.199	198.409
835.327	190.022
835.455	202.344
835.583	189.688
835.712	189.409
835.840	192.387
835.968	190.731
836.096	201.140
836.224	185.656
836.352	193.871
836.480	184.570
836.608	185.860
836.737	194.161
836.865	190.699
836.993	195.688
837.121	196.624
837.249	188.516
837.377	185.892
837.505	179.323
837.633	191.151
837.762	192.323
837.890	186.645
838.018	192.774
838.146	185.000
838.274	187.516
838.402	184.720
838.530	203.323
838.658	191.860
838.787	195.645
838.915	176.570
839.043	191.183
839.171	183.355
839.299	192.075
839.427	209.613
839.555	192.452
839.683	180.656
839.812	185.172
839.940	184.355
840.068	187.108
840.196	213.344
840.324	197.022
840.452	192.151
840.580	187.355
840.708	181.452
840.837	185.903
840.965	181.742
841.093	179.935
841.221	188.688
841.349	184.645
841.477	177.140
841.605	178.591
841.733	186.505
841.862	189.226
841.990	181.290
842.118	179.570
842.246	185.452
842.374	175.323
842.502	190.774
842.630	183.366
842.758	175.978
842.887	190.462
843.015	195.957
843.143	174.108
843.271	184.656
843.399	180.043
843.527	181.452
843.655	179.763
843.783	179.742
843.912	177.118
844.040	175.333
844.168	178.935
844.296	191.484
844.424	183.398
844.552	188.495
844.680	182.054
844.808	177.720
844.937	179.484
845.065	180.763
845.193	197.215
845.321	181.613
845.449	183.548
845.577	182.570
845.705	176.871
845.833	176.978
845.962	188.140
846.090	180.731
846.218	190.226
846.346	186.032
846.474	178.978
846.602	177.430
846.730	182.011
846.858	180.172
846.987	176.441
847.115	186.925
847.243	186.516
847.371	171.237
847.499	175.054
847.627	179.645
847.755	179.473
847.883	188.634
848.012	187.538
848.140	170.032
848.268	177.129
848.396	180.742
848.524	180.538
848.652	174.473
848.780	175.032
848.908	181.032
849.037	178.720
849.165	175.989
849.293	184.839
849.421	179.796
849.549	181.602
849.677	178.430
849.805	186.903
849.933	168.441
850.062	179.237
850.190	172.548
850.318	176.194
850.446	180.344
850.574	174.839
850.702	174.484
850.830	168.710
850.958	177.538
851.087	180.731
851.215	170.645
851.343	175.516
851.471	179.129
851.599	180.161
851.727	182.946
851.855	177.075
851.983	182.527
852.112	173.376
852.240	185.946
852.368	189.011
852.496	174.140
852.624	173.968
852.752	185.140
852.880	176.634
853.008	170.914
853.137	176.634
853.265	178.613
853.393	174.624
853.521	172.022
853.649	183.032
853.777	171.140
853.905	170.989
854.033	171.903
854.162	169.731
854.290	174.301
854.418	192.882
854.546	205.925
854.674	192.828
854.802	177.301
854.930	171.968
855.058	178.075
855.187	169.731
855.315	189.796
855.443	175.204
855.571	174.516
855.699	181.989
855.827	169.946
855.955	171.000
856.083	173.065
856.212	174.247
856.340	175.989
856.468	175.054
856.596	176.495
856.724	179.559
856.852	194.129
856.980	172.731
857.108	170.742
857.237	165.720
857.365	175.484
857.493	179.860
857.621	170.398
857.749	169.462
857.877	172.796
858.005	169.860
858.133	176.065
858.262	167.355
858.390	169.591
858.518	167.516
858.646	178.495
858.774	166.839
858.902	169.925
859.030	174.753
859.158	174.237
859.287	176.258
859.415	172.828
859.543	167.419
859.671	171.237
859.799	179.237
859.927	168.323
860.055	169.333
860.183	166.677
860.312	167.301
860.440	169.860
860.568	162.763
860.696	180.452
860.824	182.796
860.952	165.323
861.080	174.247
861.208	172.903
861.337	169.581
861.465	179.011
861.593	171.430
861.721	176.065
861.849	175.645
861.977	168.204
862.105	169.581
862.233	168.613
862.362	166.290
862.490	165.398
862.618	170.559
862.746	167.215
862.874	170.968
863.002	172.882
863.130	174.667
863.258	170.452
863.387	176.054
863.515	174.667
863.643	175.430
863.771	173.194
863.899	174.527
864.027	175.645
864.155	197.161
864.283	169.505
864.412	166.118
864.540	171.753
864.668	164.344
864.796	167.946
864.924	166.849
865.052	165.215
865.180	185.505
865.308	175.495
865.437	168.344
865.565	163.183
865.693	161.699
865.821	165.538
865.949	182.409
866.077	173.333
866.205	167.903
866.333	175.720
866.462	161.871
866.590	173.527
866.718	168.742
866.846	166.151
866.974	171.430
867.102	163.000
867.230	174.860
867.358	167.806
867.487	176.935
867.615	181.613
867.743	166.849
867.871	179.172
867.999	165.527
868.127	172.871
868.255	182.484
868.383	161.763
868.512	169.462
868.640	166.129
868.768	165.774
868.896	175.290
869.024	164.538
869.152	163.624
869.280	162.570
869.408	166.247
869.537	164.581
869.665	161.817
869.793	170.806
869.921	169.172
870.049	158.097
870.177	168.903
870.305	164.183
870.433	169.366
870.562	167.430
870.690	168.301
870.818	169.172
870.946	165.677
871.074	155.032
871.202	166.280
871.330	156.376
871.458	168.591
871.587	164.978
871.715	164.559
871.843	168.806
871.971	173.591
872.099	158.376
872.227	168.505
872.355	161.968
872.483	160.613
872.612	168.011
872.740	163.280
872.868	166.387
872.996	169.495
873.124	173.237
873.252	165.398
873.380	158.032
873.508	171.914
873.637	174.742
873.765	162.839
873.893	161.559
874.021	166.548
874.149	161.688
874.277	161.710
874.405	171.258
874.533	175.172
874.662	164.699
874.790	171.000
874.918	165.333
875.046	164.097
875.174	163.065
875.302	164.452
875.430	162.011
875.558	167.194
875.687	170.215
875.815	167.097
875.943	171.118
876.071	166.484
876.199	168.796
876.327	161.914
876.455	165.172
876.583	162.495
876.712	171.796
876.840	164.645
876.968	163.785
877.096	165.699
877.224	165.226
877.352	160.473
877.480	164.860
877.608	175.032
877.737	168.301
877.865	162.484
877.993	171.882
878.121	174.559
878.249	165.796
878.377	163.323
878.505	170.624
878.633	166.914
878.762	158.634
878.890	163.581
879.018	169.699
879.146	162.710
879.274	194.591
879.402	169.667
879.530	160.667
879.658	164.312
879.787	165.667
879.915	159.462
880.043	161.667
880.171	201.183
880.299	164.194
880.427	163.032
880.555	158.742
880.683	170.280
880.812	164.591
880.940	158.710
881.068	170.226
881.196	165.968
881.324	162.151
881.452	160.957
881.580	169.269
881.708	160.473
881.837	168.699
881.965	163.968
882.093	160.409
882.221	161.366
882.349	159.613
882.477	166.011
882.605	164.151
882.733	165.720
882.862	159.140
882.990	174.753
883.118	170.699
883.246	170.473
883.374	163.753
883.502	171.011
883.630	172.280
883.758	159.839
883.887	170.570
884.015	168.516
884.143	169.118
884.271	164.312
884.399	162.774
884.527	167.054
884.655	162.151
884.783	166.903
884.912	188.548
885.040	173.774
885.168	160.710
885.296	173.957
885.424	163.280
885.552	158.516
885.680	174.452
885.808	170.323
885.937	173.075
886.065	166.215
886.193	166.720
886.321	164.065
886.449	162.634
886.577	160.591
886.705	180.172
886.833	154.247
886.962	162.978
887.090	164.226
887.218	162.333
887.346	161.548
887.474	162.516
887.602	166.043
887.730	157.430
887.858	159.591
887.987	158.602
888.115	168.914
888.243	160.527
888.371	176.108
888.499	162.108
888.627	162.215
888.755	169.828
888.883	161.527
889.012	163.075
889.140	163.828
889.268	169.290
889.396	155.602
889.524	170.430
889.652	156.720
889.780	161.806
889.908	166.194
890.037	170.129
890.165	158.022
890.293	168.333
890.421	162.118
890.549	156.312
890.677	157.172
890.805	166.333
890.933	162.430
891.062	163.849
891.190	166.398
891.318	158.613
891.446	159.462
891.574	156.645
891.702	158.495
891.830	159.183
891.958	175.075
892.087	169.570
892.215	167.086
892.343	164.505
892.471	169.624
892.599	160.290
892.727	167.871
892.855	181.957
892.983	154.409
893.112	161.914
893.240	172.634
893.368	157.591
893.496	171.720
893.624	163.409
893.752	183.075
893.880	161.301
894.008	165.065
894.137	162.344
894.265	166.097
894.393	160.892
894.521	165.452
894.649	164.591
894.777	157.989
894.905	206.753
895.033	159.086
895.162	162.753
895.290	171.409
895.418	166.699
895.546	202.301
895.674	166.591
895.802	208.978
895.930	165.978
896.058	164.183
896.187	159.204
896.315	156.892
896.443	173.323
896.571	190.559
896.699	162.978
896.827	156.914
896.955	160.118
897.083	164.828
897.212	161.108
897.340	162.118
897.468	163.527
897.596	163.032
897.724	158.441
897.852	158.516
897.980	155.968
898.108	170.602
898.237	162.398
898.365	164.011
898.493	169.538
898.621	162.656
898.749	159.312
898.877	159.022
899.005	162.409
899.133	161.527
899.262	177.355
899.390	162.699
899.518	168.247
899.646	156.097
899.774	156.667
899.902	156.774
900.030	175.355
900.158	162.548
900.287	164.516
900.415	159.333
900.543	167.710
900.671	169.634
900.799	162.667
900.927	160.677
901.055	175.398
901.183	173.258
901.312	172.688
901.440	157.720
901.568	160.194
901.696	161.957
901.824	157.796
901.952	156.097
902.080	170.344
902.208	167.054
902.337	170.366
902.465	159.849
902.593	176.538
902.721	192.075
902.849	181.011
902.977	161.774
903.105	165.032
903.233	159.258
903.362	156.753
903.490	168.183
903.618	162.989
903.746	152.409
903.874	166.032
904.002	162.000
904.130	175.172
904.258	154.409
904.387	170.108
904.515	154.527
904.643	165.613
904.771	160.462
904.899	161.527
905.027	166.677
905.155	160.785
905.283	155.806
905.412	171.677
905.540	161.989
905.668	164.925
905.796	161.570
905.924	163.011
906.052	162.914
906.180	167.441
906.308	160.645
906.437	164.387
906.565	164.398
906.693	175.849
906.821	156.398
906.949	162.710
907.077	158.602
907.205	169.204
907.333	154.430
907.462	159.172
907.590	160.495
907.718	161.312
907.846	170.731
907.974	158.312
908.102	162.505
908.230	161.957
908.358	159.925
908.487	159.505
908.615	173.613
908.743	172.065
908.871	165.226
908.999	161.269
909.127	160.043
909.255	172.409
909.383	159.495
909.512	158.344
909.640	173.763
909.768	159.333
909.896	167.140
910.024	170.161
910.152	171.839
910.280	170.989
910.408	163.634
910.537	162.065
910.665	169.634
910.793	166.699
910.921	164.398
911.049	175.419
911.177	178.505
911.305	164.323
911.433	160.333
911.562	173.978
911.690	168.849
911.818	169.086
911.946	164.624
912.074	171.376
912.202	163.903
912.330	185.237
912.458	160.785
912.587	166.817
912.715	170.452
912.843	173.624
912.971	167.226
913.099	186.183
913.227	174.258
913.355	171.075
913.483	181.366
913.612	175.796
913.740	194.710
913.868	172.376
