70_100_0_Pol_at_750.00nm_cut_at_1184.50Y_01.dat
03.07.2023
10:36:00
cut middle at Y: 1184.50
top cursor: 1231 down cursor: 1138 mean of: 93 lines , 2560 datapoints
wavelength(nm)	intensity[arb. units]
585.996	10652.183
586.124	10433.054
586.252	10388.269
586.380	10428.452
586.508	10456.097
586.637	10537.591
586.765	10490.645
586.893	10499.903
587.021	10590.075
587.149	10601.978
587.277	10612.237
587.405	10606.280
587.533	10664.806
587.662	10701.215
587.790	10669.161
587.918	10670.720
588.046	10662.355
588.174	10698.312
588.302	10696.183
588.430	10672.194
588.558	10713.849
588.687	10722.871
588.815	10746.892
588.943	10764.323
589.071	10722.204
589.199	10744.441
589.327	10751.387
589.455	10796.151
589.583	10751.581
589.712	10753.828
589.840	10716.516
589.968	10737.312
590.096	10781.398
590.224	10790.484
590.352	10805.602
590.480	10768.194
590.608	10759.172
590.737	10768.108
590.865	10864.118
590.993	10738.656
591.121	10783.161
591.249	10799.022
591.377	10783.215
591.505	10890.194
591.633	10798.269
591.762	10793.849
591.890	10820.903
592.018	10954.301
592.146	10840.828
592.274	10827.688
592.402	10852.860
592.530	11066.118
592.658	10975.581
592.787	10919.398
592.915	10987.505
593.043	10892.720
593.171	10970.215
593.299	10923.989
593.427	10949.333
593.555	10999.043
593.683	10993.946
593.812	11003.613
593.940	11050.860
594.068	11044.591
594.196	11043.183
594.324	11082.140
594.452	11286.839
594.580	11183.591
594.708	11212.882
594.837	11219.634
594.965	11294.785
595.093	11265.000
595.221	11337.731
595.349	11327.774
595.477	11342.376
595.605	11382.591
595.733	11372.903
595.862	11419.183
595.990	11444.774
596.118	11517.753
596.246	11554.527
596.374	11507.065
596.502	11537.839
596.630	11538.968
596.758	11543.677
596.887	11551.269
597.015	11582.269
597.143	11578.312
597.271	11629.215
597.399	11660.022
597.527	11604.559
597.655	11631.903
597.783	11668.742
597.912	11645.151
598.040	11696.828
598.168	11686.430
598.296	11658.935
598.424	11794.032
598.552	11627.548
598.680	11702.204
598.808	11755.591
598.937	11677.548
599.065	11711.871
599.193	11764.226
599.321	11741.258
599.449	11724.774
599.577	11738.892
599.705	11718.301
599.833	11685.065
599.962	11689.376
600.090	11736.075
600.218	11712.538
600.346	11733.301
600.474	11692.774
600.602	11667.129
600.730	11665.763
600.858	11712.269
600.987	11765.839
601.115	11743.237
601.243	11784.742
601.371	11855.118
601.499	11791.075
601.627	11846.204
601.755	11829.108
601.883	11855.495
602.012	11766.688
602.140	11875.968
602.268	11872.677
602.396	11998.097
602.524	11906.194
602.652	12022.817
602.780	11983.484
602.908	12025.215
603.037	12081.581
603.165	12113.312
603.293	12125.301
603.421	12135.742
603.549	12194.688
603.677	12225.774
603.805	12239.774
603.933	12286.247
604.062	12380.538
604.190	12432.054
604.318	12459.860
604.446	12440.849
604.574	12552.935
604.702	12561.677
604.830	12592.624
604.958	12567.548
605.087	12642.892
605.215	12718.000
605.343	12819.957
605.471	12789.172
605.599	12801.742
605.727	12959.581
605.855	12938.495
605.983	12961.129
606.112	13029.441
606.240	13022.108
606.368	12982.656
606.496	13033.204
606.624	13145.376
606.752	13099.054
606.880	13156.699
607.008	13124.581
607.137	13169.925
607.265	13295.731
607.393	13256.323
607.521	13323.473
607.649	13279.194
607.777	13293.312
607.905	13300.968
608.033	13286.892
608.162	13324.430
608.290	13293.065
608.418	13405.796
608.546	13374.419
608.674	13435.269
608.802	13357.871
608.930	13350.785
609.058	13399.075
609.187	13368.882
609.315	13343.183
609.443	13381.699
609.571	13460.978
609.699	13335.957
609.827	13443.710
609.955	13410.968
610.083	13363.516
610.212	13405.452
610.340	13348.849
610.468	13400.613
610.596	13345.849
610.724	13357.677
610.852	13446.194
610.980	13444.301
611.108	13363.699
611.237	13399.527
611.365	13425.387
611.493	13406.957
611.621	13438.946
611.749	13456.484
611.877	13494.591
612.005	13461.871
612.133	13515.989
612.262	13538.000
612.390	13600.892
612.518	13617.968
612.646	13571.065
612.774	13689.731
612.902	13662.656
613.030	13692.968
613.158	13656.226
613.287	13766.892
613.415	13680.914
613.543	13737.796
613.671	13739.215
613.799	13810.720
613.927	13815.538
614.055	13911.129
614.183	13913.290
614.312	13909.946
614.440	14031.194
614.568	14008.828
614.696	14045.183
614.824	14034.925
614.952	14088.204
615.080	14114.011
615.208	14153.258
615.337	14302.559
615.465	14200.763
615.593	14305.376
615.721	14293.559
615.849	14400.387
615.977	14358.817
616.105	14442.172
616.233	14483.796
616.362	14513.409
616.490	14505.817
616.618	14578.312
616.746	14676.269
616.874	14630.355
617.002	14647.086
617.130	14720.258
617.258	14680.022
617.387	14709.366
617.515	14776.355
617.643	14758.269
617.771	14867.086
617.899	14779.161
618.027	14893.032
618.155	14895.269
618.283	14916.828
618.412	14930.376
618.540	15027.806
618.668	15005.032
618.796	15014.914
618.924	15002.656
619.052	15018.000
619.180	14993.172
619.308	15041.108
619.437	15002.742
619.565	15059.376
619.693	15068.473
619.821	15115.903
619.949	15063.172
620.077	15125.333
620.205	15146.538
620.333	15179.699
620.462	15163.699
620.590	15182.516
620.718	15212.011
620.846	15257.591
620.974	15196.645
621.102	15231.473
621.230	15255.366
621.358	15394.817
621.487	15227.968
621.615	15300.366
621.743	15197.946
621.871	15318.968
621.999	15218.699
622.127	15260.505
622.255	15298.366
622.383	15252.753
622.512	15264.935
622.640	15255.957
622.768	15311.247
622.896	15388.892
623.024	15355.624
623.152	15342.839
623.280	15396.108
623.408	15310.860
623.537	15417.151
623.665	15357.484
623.793	15456.634
623.921	15388.204
624.049	15387.204
624.177	15390.301
624.305	15376.204
624.433	15396.570
624.562	15442.108
624.690	15536.505
624.818	15400.398
624.946	15410.677
625.074	15421.118
625.202	15430.344
625.330	15418.742
625.458	15559.957
625.587	15443.860
625.715	15518.591
625.843	15456.656
625.971	15508.957
626.099	15534.538
626.227	15550.484
626.355	15476.011
626.483	15608.237
626.612	15542.484
626.740	15625.355
626.868	15572.269
626.996	15671.720
627.124	15636.720
627.252	15594.516
627.380	15674.161
627.508	15609.624
627.637	15654.978
627.765	15712.129
627.893	15755.398
628.021	15826.860
628.149	15723.946
628.277	15820.656
628.405	15828.387
628.533	15780.204
628.662	15831.753
628.790	15947.968
628.918	15833.656
629.046	16008.538
629.174	15876.108
629.302	15953.667
629.430	15894.258
629.558	15975.032
629.687	15952.495
629.815	16020.387
629.943	16149.183
630.071	16114.462
630.199	16077.054
630.327	16182.194
630.455	16142.215
630.583	16170.183
630.712	16182.226
630.840	16226.398
630.968	16221.183
631.096	16243.656
631.224	16275.183
631.352	16453.097
631.480	16322.387
631.608	16508.892
631.737	16350.914
631.865	16530.505
631.993	16495.688
632.121	16667.667
632.249	16526.054
632.377	16500.280
632.505	16519.323
632.633	16582.333
632.762	16492.462
632.890	16562.011
633.018	16560.946
633.146	16573.785
633.274	16569.473
633.402	16627.527
633.530	16581.548
633.658	16637.387
633.787	16619.699
633.915	16616.194
634.043	16657.043
634.171	16663.366
634.299	16653.108
634.427	16654.871
634.555	16907.495
634.683	16716.452
634.812	16718.538
634.940	16683.269
635.068	16642.419
635.196	16667.860
635.324	16665.108
635.452	16651.570
635.580	16763.290
635.708	16631.065
635.837	16677.935
635.965	16643.602
636.093	16664.269
636.221	16604.355
636.349	16561.667
636.477	16589.118
636.605	16612.000
636.733	16587.667
636.862	16541.882
636.990	16601.849
637.118	16536.645
637.246	16498.581
637.374	16671.989
637.502	16461.065
637.630	16451.366
637.758	16462.624
637.887	16401.312
638.015	16540.065
638.143	16440.355
638.271	16391.613
638.399	16413.925
638.527	16400.495
638.655	16361.355
638.783	16360.323
638.912	16387.634
639.040	16283.624
639.168	16306.032
639.296	16245.473
639.424	16327.581
639.552	16297.269
639.680	16350.237
639.808	16280.538
639.937	16248.097
640.065	16231.849
640.193	16244.043
640.321	16350.742
640.449	16356.161
640.577	16229.796
640.705	16239.430
640.833	16260.656
640.962	16331.419
641.090	16210.118
641.218	16267.925
641.346	16357.473
641.474	16260.699
641.602	16303.914
641.730	16285.720
641.858	16276.946
641.987	16272.763
642.115	16457.312
642.243	16344.172
642.371	16508.011
642.499	16277.624
642.627	16408.430
642.755	16359.591
642.883	16371.505
643.012	16395.624
643.140	16442.344
643.268	16433.032
643.396	16376.280
643.524	16442.731
643.652	16541.527
643.780	16422.613
643.908	16433.269
644.037	16531.946
644.165	16538.495
644.293	16606.763
644.421	16478.473
644.549	16544.785
644.677	16594.452
644.805	16505.011
644.933	16510.871
645.062	16559.075
645.190	16688.581
645.318	16582.172
645.446	16515.462
645.574	16504.441
645.702	16589.828
645.830	16568.613
645.958	16504.968
646.087	16497.247
646.215	16479.849
646.343	16514.817
646.471	16662.065
646.599	16530.204
646.727	16567.742
646.855	16527.946
646.983	16493.871
647.112	16598.559
647.240	16493.828
647.368	16583.882
647.496	16496.290
647.624	16509.441
647.752	16504.409
647.880	16460.344
648.008	16485.312
648.137	16571.699
648.265	16460.247
648.393	16541.946
648.521	16418.817
648.649	16546.441
648.777	16515.473
648.905	16414.258
649.033	16479.613
649.162	16353.129
649.290	16275.054
649.418	16313.484
649.546	16484.495
649.674	16321.688
649.802	16280.871
649.930	16255.441
650.058	16204.849
650.187	16227.989
650.315	16178.140
650.443	16204.323
650.571	16141.086
650.699	16080.882
650.827	16092.000
650.955	16083.828
651.083	16120.742
651.212	16019.183
651.340	16066.140
651.468	15983.516
651.596	15994.581
651.724	15999.376
651.852	15935.484
651.980	15939.774
652.108	15899.667
652.237	15937.398
652.365	15854.742
652.493	15816.097
652.621	15793.054
652.749	15850.656
652.877	15800.043
653.005	15838.591
653.133	15748.903
653.262	15741.720
653.390	15680.054
653.518	15815.366
653.646	15645.624
653.774	15624.527
653.902	15708.398
654.030	15637.817
654.158	15569.978
654.287	15579.387
654.415	15573.978
654.543	15608.032
654.671	15533.054
654.799	15500.871
654.927	15468.720
655.055	15459.796
655.183	15429.452
655.312	15418.097
655.440	15419.495
655.568	15362.409
655.696	15473.280
655.824	15370.301
655.952	15340.097
656.080	15264.763
656.208	15325.097
656.337	15356.903
656.465	15436.032
656.593	15259.516
656.721	15302.097
656.849	15369.796
656.977	15169.108
657.105	15203.151
657.233	15195.430
657.362	15237.366
657.490	15193.957
657.618	15185.731
657.746	15146.419
657.874	15053.484
658.002	15003.505
658.130	15017.301
658.258	15021.247
658.387	14921.935
658.515	14967.280
658.643	14884.226
658.771	14983.710
658.899	14905.903
659.027	14884.968
659.155	14862.892
659.283	14862.484
659.412	14854.452
659.540	14794.677
659.668	14879.516
659.796	14888.237
659.924	14855.806
660.052	14898.290
660.180	14819.559
660.308	14865.624
660.437	14848.570
660.565	14776.656
660.693	14732.753
660.821	14869.172
660.949	14682.140
661.077	14720.258
661.205	14846.677
661.333	14691.968
661.462	14643.968
661.590	14779.828
661.718	14669.043
661.846	14668.376
661.974	14581.731
662.102	14575.290
662.230	14608.613
662.358	14516.817
662.487	14563.839
662.615	14535.591
662.743	14563.710
662.871	14510.129
662.999	14457.151
663.127	14454.527
663.255	14472.677
663.383	14570.301
663.512	14353.172
663.640	14390.925
663.768	14414.892
663.896	14367.527
664.024	14423.581
664.152	14381.215
664.280	14446.978
664.408	14335.097
664.537	14332.548
664.665	14359.054
664.793	14319.839
664.921	14272.398
665.049	14370.301
665.177	14264.860
665.305	14253.344
665.433	14279.548
665.562	14431.280
665.690	14294.688
665.818	14425.656
665.946	14193.161
666.074	14199.161
666.202	14174.462
666.330	14138.462
666.458	14592.333
666.587	14137.763
666.715	14171.570
666.843	14143.925
666.971	14150.183
667.099	14138.548
667.227	14200.710
667.355	14205.398
667.483	14094.634
667.612	14117.613
667.740	14130.656
667.868	14069.419
667.996	14053.376
668.124	14052.968
668.252	14154.473
668.380	14040.118
668.508	14025.613
668.637	14015.344
668.765	13999.817
668.893	14026.043
669.021	13918.828
669.149	14011.892
669.277	13864.806
669.405	14003.419
669.533	13985.946
669.662	13867.140
669.790	13838.441
669.918	13894.753
670.046	14014.075
670.174	13793.312
670.302	13776.688
670.430	13730.226
670.558	13816.849
670.687	13905.667
670.815	13695.409
670.943	13736.075
671.071	13664.247
671.199	13634.559
671.327	13601.226
671.455	13650.656
671.583	13587.581
671.712	13566.710
671.840	13612.731
671.968	13718.548
672.096	13668.860
672.224	13473.860
672.352	13473.280
672.480	13387.108
672.608	13484.172
672.737	13379.000
672.865	13352.591
672.993	13337.226
673.121	13351.634
673.249	13284.989
673.377	13256.043
673.505	13223.731
673.633	13278.753
673.762	13158.742
673.890	13174.774
674.018	13187.903
674.146	13085.075
674.274	13110.699
674.402	13146.602
674.530	13069.871
674.658	13022.495
674.787	13005.559
674.915	13111.634
675.043	12990.935
675.171	12926.226
675.299	12902.624
675.427	12840.161
675.555	12829.989
675.683	12840.710
675.812	12791.484
675.940	12790.387
676.068	12726.538
676.196	12751.763
676.324	12652.366
676.452	12618.161
676.580	12584.753
676.708	12558.710
676.837	12570.968
676.965	12678.505
677.093	12713.441
677.221	12537.032
677.349	12457.763
677.477	12513.344
677.605	12418.796
677.733	12398.774
677.862	12390.957
677.990	12367.419
678.118	12409.720
678.246	12291.538
678.374	12334.925
678.502	12247.720
678.630	12182.914
678.758	12219.720
678.887	12328.602
679.015	12113.269
679.143	12069.935
679.271	12095.978
679.399	12075.935
679.527	12111.495
679.655	12132.215
679.783	12028.559
679.912	12013.032
680.040	12143.419
680.168	11946.989
680.296	11968.237
680.424	11931.645
680.552	11927.957
680.680	11898.516
680.808	11834.366
680.937	11806.237
681.065	11854.699
681.193	11758.742
681.321	11730.505
681.449	11824.226
681.577	11742.892
681.705	11705.086
681.833	11739.925
681.962	11705.441
682.090	11647.387
682.218	11671.075
682.346	11680.742
682.474	11612.806
682.602	11584.720
682.730	11637.591
682.858	11586.172
682.987	11537.817
683.115	11558.172
683.243	11548.806
683.371	11537.935
683.499	11500.086
683.627	11549.731
683.755	11523.441
683.883	11469.108
684.012	11483.247
684.140	11418.774
684.268	11442.312
684.396	11509.989
684.524	11438.043
684.652	11472.355
684.780	11449.839
684.908	11427.591
685.037	11428.269
685.165	11393.430
685.293	11479.688
685.421	11414.527
685.549	11388.903
685.677	11375.688
685.805	11375.032
685.933	11313.753
686.062	11374.581
686.190	11300.043
686.318	11291.140
686.446	11280.333
686.574	11274.957
686.702	11318.387
686.830	11249.452
686.958	11326.011
687.087	11220.183
687.215	11237.312
687.343	11191.118
687.471	11373.194
687.599	11121.108
687.727	11123.011
687.855	11146.204
687.983	11079.849
688.112	11108.656
688.240	11104.323
688.368	11110.989
688.496	11073.527
688.624	11034.527
688.752	11182.161
688.880	11040.688
689.008	10991.280
689.137	11011.215
689.265	10929.581
689.393	10959.849
689.521	10951.742
689.649	11007.000
689.777	10956.957
689.905	10951.688
690.033	10854.989
690.162	10851.796
690.290	10881.892
690.418	10772.495
690.546	10830.946
690.674	10857.968
690.802	10824.817
690.930	10782.183
691.058	10766.355
691.187	10714.763
691.315	10690.495
691.443	10667.075
691.571	10676.516
691.699	10608.892
691.827	10583.280
691.955	10609.602
692.083	10569.129
692.212	10558.172
692.340	10557.312
692.468	10565.796
692.596	10513.527
692.724	10450.215
692.852	10520.978
692.980	10462.570
693.108	10465.968
693.237	10382.129
693.365	10351.183
693.493	10318.731
693.621	10299.194
693.749	10282.172
693.877	10303.387
694.005	10227.720
694.133	10209.699
694.262	10245.312
694.390	10133.387
694.518	10131.968
694.646	10132.548
694.774	10062.634
694.902	10084.430
695.030	10037.344
695.158	9969.763
695.287	9993.301
695.415	9979.183
695.543	9948.140
695.671	9860.774
695.799	9988.419
695.927	9846.355
696.055	9858.473
696.183	9793.441
696.312	9953.989
696.440	9774.290
696.568	9782.570
696.696	9671.817
696.824	9627.581
696.952	9594.183
697.080	9593.011
697.208	9576.968
697.337	9540.172
697.465	9522.323
697.593	9464.548
697.721	9580.892
697.849	9439.774
697.977	9478.108
698.105	9461.624
698.233	9416.688
698.362	9322.269
698.490	9463.925
698.618	9274.935
698.746	9264.376
698.874	9328.645
699.002	9265.656
699.130	9260.602
699.258	9170.075
699.387	9110.613
699.515	9156.624
699.643	9145.796
699.771	9209.796
699.899	9043.720
700.027	9000.903
700.155	9087.828
700.283	8933.280
700.412	8924.645
700.540	8948.000
700.668	8962.892
700.796	8818.376
700.924	8892.806
701.052	8881.441
701.180	8847.742
701.308	8754.613
701.437	8709.043
701.565	8702.914
701.693	8757.710
701.821	8869.333
701.949	8617.559
702.077	8629.914
702.205	8675.000
702.333	8559.989
702.462	8536.237
702.590	8587.258
702.718	8447.753
702.846	8628.839
702.974	8412.161
703.102	8381.817
703.230	8386.495
703.358	8345.011
703.487	8336.989
703.615	8298.914
703.743	8233.430
703.871	8243.710
703.999	8189.398
704.127	8155.699
704.255	8109.935
704.383	8163.376
704.512	8192.183
704.640	8134.677
704.768	8147.484
704.896	7995.387
705.024	7961.796
705.152	7967.366
705.280	7984.527
705.408	7836.688
705.537	7859.785
705.665	7884.269
705.793	7809.333
705.921	7777.753
706.049	7706.097
706.177	7736.505
706.305	7683.323
706.433	7725.140
706.562	7643.000
706.690	7643.677
706.818	7611.247
706.946	7548.398
707.074	7501.452
707.202	7461.000
707.330	7465.172
707.458	7411.172
707.587	7396.097
707.715	7415.462
707.843	7368.495
707.971	7399.935
708.099	7264.516
708.227	7285.731
708.355	7249.559
708.483	7218.108
708.612	7226.559
708.740	7154.215
708.868	7139.204
708.996	7208.011
709.124	7126.989
709.252	7066.892
709.380	7112.441
709.508	7023.237
709.637	7051.624
709.765	6985.677
709.893	7033.376
710.021	6933.978
710.149	7034.398
710.277	6869.860
710.405	6900.409
710.533	6824.806
710.662	6822.043
710.790	6919.323
710.918	6780.312
711.046	6799.548
711.174	6726.871
711.302	6745.796
711.430	6715.591
711.558	6725.129
711.687	6686.527
711.815	6619.581
711.943	6590.774
712.071	6577.366
712.199	6594.473
712.327	6651.108
712.455	6505.828
712.583	6698.355
712.712	6489.634
712.840	6529.548
712.968	6444.527
713.096	6434.559
713.224	6413.323
713.352	6393.269
713.480	6312.237
713.608	6317.602
713.737	6268.548
713.865	6337.505
713.993	6283.914
714.121	6267.785
714.249	6207.387
714.377	6194.473
714.505	6159.204
714.633	6167.172
714.762	6129.075
714.890	6117.409
715.018	6102.280
715.146	6125.538
715.274	6036.849
715.402	6037.978
715.530	6027.032
715.658	6037.215
715.787	5986.151
715.915	6084.677
716.043	5941.452
716.171	6064.710
716.299	5861.054
716.427	5937.817
716.555	5858.871
716.683	5820.161
716.812	5801.860
716.940	5768.882
717.068	5724.366
717.196	5896.742
717.324	5730.559
717.452	5709.753
717.580	5750.559
717.708	5634.194
717.837	5650.763
717.965	5658.763
718.093	5603.602
718.221	5602.925
718.349	5658.527
718.477	5522.849
718.605	5610.333
718.733	5534.323
718.862	5543.591
718.990	5434.011
719.118	5504.753
719.246	5416.419
719.374	5403.140
719.502	5425.484
719.630	5502.495
719.758	5296.602
719.887	5309.570
720.015	5338.591
720.143	5333.581
720.271	5218.151
720.399	5285.871
720.527	5217.462
720.655	5271.774
720.783	5151.333
720.912	5129.806
721.040	5130.796
721.168	5137.753
721.296	5030.538
721.424	5046.032
721.552	4996.591
721.680	5061.108
721.808	5019.247
721.937	4969.075
722.065	4975.548
722.193	4916.097
722.321	4897.548
722.449	4879.430
722.577	4816.774
722.705	4822.624
722.833	4803.430
722.962	4810.581
723.090	4748.742
723.218	4731.290
723.346	4772.516
723.474	4695.688
723.602	4656.323
723.730	4625.591
723.858	4612.323
723.987	4588.172
724.115	4567.086
724.243	4588.398
724.371	4528.817
724.499	4511.946
724.627	4489.172
724.755	4428.548
724.883	4545.376
725.012	4603.753
725.140	4434.774
725.268	4347.591
725.396	4441.935
725.524	4472.925
725.652	4308.763
725.780	4422.871
725.908	4267.516
726.037	4260.968
726.165	4270.097
726.293	4209.720
726.421	4209.903
726.549	4215.677
726.677	4182.914
726.805	4101.559
726.933	4128.753
727.062	4067.075
727.190	4045.452
727.318	4024.172
727.446	4008.312
727.574	3969.839
727.702	3974.688
727.830	3996.323
727.958	3944.452
728.087	3996.839
728.215	4022.065
728.343	3878.312
728.471	3885.011
728.599	4006.129
728.727	3814.570
728.855	3789.226
728.983	3782.280
729.112	3789.183
729.240	3785.763
729.368	3729.710
729.496	3742.290
729.624	3699.161
729.752	3657.409
729.880	3657.860
730.008	3626.032
730.137	3621.871
730.265	3592.086
730.393	3746.785
730.521	3704.699
730.649	3523.075
730.777	3480.333
730.905	3507.968
731.033	3446.871
731.162	3542.839
731.290	3520.022
731.418	3429.495
731.546	3405.452
731.674	3398.989
731.802	3344.398
731.930	3450.935
732.058	3462.882
732.187	3353.871
732.315	3342.903
732.443	3432.968
732.571	3334.839
732.699	3293.065
732.827	3306.032
732.955	3257.935
733.083	3216.161
733.212	3251.387
733.340	3185.215
733.468	3181.978
733.596	3152.194
733.724	3139.527
733.852	3166.516
733.980	3132.172
734.108	3283.656
734.237	3094.677
734.365	3069.215
734.493	3073.022
734.621	3028.548
734.749	3039.753
734.877	3039.925
735.005	3023.473
735.133	2972.075
735.262	3087.817
735.390	2971.591
735.518	2975.570
735.646	3015.247
735.774	2989.215
735.902	3012.269
736.030	2891.602
736.158	2856.376
736.287	2927.591
736.415	2860.204
736.543	2853.376
736.671	2805.559
736.799	2846.484
736.927	2807.892
737.055	2932.000
737.183	2764.968
737.312	2758.806
737.440	2762.957
737.568	2862.226
737.696	2819.290
737.824	2717.656
737.952	2994.398
738.080	2680.946
738.208	2743.763
738.337	2676.312
738.465	2678.452
738.593	2664.742
738.721	2668.043
738.849	2706.140
738.977	2633.000
739.105	2638.688
739.233	2609.269
739.362	2588.129
739.490	2581.849
739.618	2621.871
739.746	2634.226
739.874	2583.172
740.002	2589.935
740.130	2562.473
740.258	2557.462
740.387	2610.710
740.515	2592.430
740.643	2557.183
740.771	2576.957
740.899	2521.097
741.027	2520.247
741.155	2518.237
741.283	2505.215
741.412	2532.527
741.540	2509.634
741.668	2491.570
741.796	2490.215
741.924	2463.247
742.052	2449.516
742.180	2461.194
742.308	2411.398
742.437	2428.667
742.565	2415.075
742.693	2410.301
742.821	2397.559
742.949	2350.634
743.077	2344.667
743.205	2348.731
743.333	2333.161
743.462	2331.161
743.590	2312.129
743.718	2303.366
743.846	2293.763
743.974	2317.376
744.102	2263.667
744.230	2261.882
744.358	2247.839
744.487	2227.699
744.615	2204.108
744.743	2210.258
744.871	2195.290
744.999	2185.613
745.127	2203.409
745.255	2153.387
745.383	2149.710
745.512	2126.839
745.640	2133.376
745.768	2134.731
745.896	2115.011
746.024	2088.591
746.152	2088.398
746.280	2081.409
746.408	2083.978
746.537	2054.258
746.665	2066.290
746.793	2027.849
746.921	2018.774
747.049	2025.570
747.177	2008.538
747.305	2014.785
747.433	2002.398
747.562	1965.882
747.690	1975.247
747.818	1947.839
747.946	1950.839
748.074	1921.667
748.202	1934.591
748.330	1894.720
748.458	1890.817
748.587	1893.817
748.715	1884.376
748.843	1867.161
748.971	1851.495
749.099	1861.172
749.227	1849.301
749.355	1866.269
749.483	1790.688
749.612	1844.151
749.740	1814.968
749.868	1812.839
749.996	1798.602
750.124	1808.591
750.252	1762.086
750.380	1772.204
750.508	1756.484
750.637	1756.194
750.765	1740.172
750.893	1728.194
751.021	1721.828
751.149	1716.860
751.277	1700.290
751.405	1681.151
751.533	1699.172
751.662	1672.054
751.790	1658.925
751.918	1653.011
752.046	1639.914
752.174	1623.065
752.302	1613.989
752.430	1603.903
752.558	1608.989
752.687	1607.570
752.815	1605.688
752.943	1589.043
753.071	1568.946
753.199	1567.871
753.327	1577.989
753.455	1539.441
753.583	1536.161
753.712	1515.398
753.840	1538.914
753.968	1510.323
754.096	1505.086
754.224	1512.258
754.352	1477.892
754.480	1503.000
754.608	1472.559
754.737	1470.710
754.865	1482.516
754.993	1465.086
755.121	1457.075
755.249	1419.452
755.377	1408.441
755.505	1419.032
755.633	1402.699
755.762	1403.484
755.890	1399.333
756.018	1386.968
756.146	1370.075
756.274	1347.473
756.402	1366.387
756.530	1369.118
756.658	1350.742
756.787	1334.710
756.915	1328.129
757.043	1310.806
757.171	1322.882
757.299	1320.688
757.427	1291.871
757.555	1289.860
757.683	1287.581
757.812	1301.742
757.940	1266.075
758.068	1259.355
758.196	1258.355
758.324	1249.645
758.452	1243.204
758.580	1230.065
758.708	1231.333
758.837	1237.720
758.965	1237.892
759.093	1231.516
759.221	1193.656
759.349	1194.978
759.477	1192.978
759.605	1166.785
759.733	1183.634
759.862	1157.957
759.990	1160.742
760.118	1156.097
760.246	1159.226
760.374	1152.677
760.502	1146.753
760.630	1116.151
760.758	1118.172
760.887	1118.473
761.015	1115.419
761.143	1117.914
761.271	1109.183
761.399	1093.914
761.527	1093.333
761.655	1085.505
761.783	1071.151
761.912	1064.118
762.040	1071.903
762.168	1048.710
762.296	1050.194
762.424	1047.269
762.552	1046.710
762.680	1029.839
762.808	1042.344
762.937	1031.473
763.065	1010.280
763.193	1004.882
763.321	1003.301
763.449	984.871
763.577	983.978
763.705	993.860
763.833	985.946
763.962	976.688
764.090	971.570
764.218	967.054
764.346	958.226
764.474	947.613
764.602	941.204
764.730	950.817
764.858	935.194
764.987	934.527
765.115	917.129
765.243	916.968
765.371	910.441
765.499	914.581
765.627	904.946
765.755	904.075
765.883	896.280
766.012	894.538
766.140	881.140
766.268	879.613
766.396	868.409
766.524	872.828
766.652	862.183
766.780	861.022
766.908	867.290
767.037	874.935
767.165	849.817
767.293	849.075
767.421	846.495
767.549	830.806
767.677	849.462
767.805	832.871
767.933	831.688
768.062	820.742
768.190	817.796
768.318	808.957
768.446	813.677
768.574	803.914
768.702	811.710
768.830	796.269
768.958	790.054
769.087	794.946
769.215	792.925
769.343	794.387
769.471	785.022
769.599	779.667
769.727	773.151
769.855	760.731
769.983	794.516
770.112	762.570
770.240	753.086
770.368	758.280
770.496	739.796
770.624	748.237
770.752	732.505
770.880	743.366
771.008	732.226
771.137	726.731
771.265	720.387
771.393	709.151
771.521	711.204
771.649	730.269
771.777	756.796
771.905	773.108
772.033	745.269
772.162	701.172
772.290	699.828
772.418	712.839
772.546	694.075
772.674	688.516
772.802	688.667
772.930	680.624
773.058	682.333
773.187	679.699
773.315	673.054
773.443	673.656
773.571	670.366
773.699	656.355
773.827	676.054
773.955	680.161
774.083	669.011
774.212	657.161
774.340	650.194
774.468	649.839
774.596	647.774
774.724	651.570
774.852	653.731
774.980	637.333
775.108	629.247
775.237	628.882
775.365	626.581
775.493	630.118
775.621	624.527
775.749	624.333
775.877	629.344
776.005	617.333
776.133	612.484
776.262	620.860
776.390	607.968
776.518	602.495
776.646	606.882
776.774	598.935
776.902	589.075
777.030	594.215
777.158	586.161
777.287	599.323
777.415	586.226
777.543	579.065
777.671	585.387
777.799	578.774
777.927	583.624
778.055	588.527
778.183	574.903
778.312	569.989
778.440	567.344
778.568	586.753
778.696	566.000
778.824	568.989
778.952	562.914
779.080	557.710
779.208	558.946
779.337	568.161
779.465	561.043
779.593	556.312
779.721	545.333
779.849	546.441
779.977	546.473
780.105	550.032
780.233	554.559
780.362	540.903
780.490	528.742
780.618	529.796
780.746	526.323
780.874	525.387
781.002	530.742
781.130	530.280
781.258	516.237
781.387	521.194
781.515	522.075
781.643	511.387
781.771	514.473
781.899	518.624
782.027	506.387
782.155	513.527
782.283	500.527
782.412	511.043
782.540	511.495
782.668	501.570
782.796	501.828
782.924	508.258
783.052	513.333
783.180	494.032
783.308	490.323
783.437	482.677
783.565	496.484
783.693	487.559
783.821	483.376
783.949	486.129
784.077	481.183
784.205	478.774
784.333	476.161
784.462	486.366
784.590	470.559
784.718	466.581
784.846	470.882
784.974	483.645
785.102	458.742
785.230	468.677
785.358	461.054
785.487	456.946
785.615	457.473
785.743	454.774
785.871	462.086
785.999	458.247
786.127	459.269
786.255	444.785
786.383	445.355
786.512	450.946
786.640	448.226
786.768	443.118
786.896	438.312
787.024	432.602
787.152	437.742
787.280	449.301
787.408	438.151
787.537	439.054
787.665	444.129
787.793	426.323
787.921	434.108
788.049	421.978
788.177	420.624
788.305	423.118
788.433	425.892
788.562	411.806
788.690	421.312
788.818	418.742
788.946	415.226
789.074	403.172
789.202	411.065
789.330	403.323
789.458	411.269
789.587	404.054
789.715	409.892
789.843	405.753
789.971	405.226
790.099	397.215
790.227	394.548
790.355	400.892
790.483	398.032
790.612	397.968
790.740	402.269
790.868	390.559
790.996	404.892
791.124	409.032
791.252	392.849
791.380	391.957
791.508	388.495
791.637	389.215
791.765	375.742
791.893	384.151
792.021	394.140
792.149	373.237
792.277	384.065
792.405	373.387
792.533	374.484
792.662	380.043
792.790	382.204
792.918	384.688
793.046	368.677
793.174	372.215
793.302	362.860
793.430	368.054
793.558	378.065
793.687	363.763
793.815	358.763
793.943	379.763
794.071	360.172
794.199	357.634
794.327	359.839
794.455	368.645
794.583	369.817
794.712	358.817
794.840	351.634
794.968	357.602
795.096	365.387
795.224	341.054
795.352	390.065
795.480	339.312
795.608	342.000
795.737	344.387
795.865	336.914
795.993	347.075
796.121	341.269
796.249	337.925
796.377	344.957
796.505	344.441
796.633	348.097
796.762	332.516
796.890	335.538
797.018	332.258
797.146	337.731
797.274	341.161
797.402	327.839
797.530	328.677
797.658	330.000
797.787	343.484
797.915	327.333
798.043	318.323
798.171	332.882
798.299	318.570
798.427	329.505
798.555	333.118
798.683	323.645
798.812	354.699
798.940	372.946
799.068	353.538
799.196	327.290
799.324	329.527
799.452	312.452
799.580	312.430
799.708	319.108
799.837	311.559
799.965	309.118
800.093	306.903
800.221	306.161
800.349	312.581
800.477	304.570
800.605	304.441
800.733	299.806
800.862	314.548
800.990	308.409
801.118	299.430
801.246	306.011
801.374	301.882
801.502	300.882
801.630	301.753
801.758	305.968
801.887	291.978
802.015	294.613
802.143	291.946
802.271	298.839
802.399	290.570
802.527	284.656
802.655	292.452
802.783	294.269
802.912	289.946
803.040	288.591
803.168	282.828
803.296	299.312
803.424	287.183
803.552	289.935
803.680	290.452
803.808	291.065
803.937	280.075
804.065	290.108
804.193	289.548
804.321	290.108
804.449	299.022
804.577	285.731
804.705	300.796
804.833	275.581
804.962	281.140
805.090	275.118
805.218	278.731
805.346	267.871
805.474	281.925
805.602	281.183
805.730	293.022
805.858	272.290
805.987	270.161
806.115	271.086
806.243	284.527
806.371	269.957
806.499	270.688
806.627	266.785
806.755	275.312
806.883	274.247
807.012	267.742
807.140	279.204
807.268	259.957
807.396	268.258
807.524	267.441
807.652	271.677
807.780	267.484
807.908	270.581
808.037	284.527
808.165	272.667
808.293	257.129
808.421	262.978
808.549	255.097
808.677	264.774
808.805	272.204
808.933	266.581
809.062	256.774
809.190	274.387
809.318	258.720
809.446	251.849
809.574	264.086
809.702	256.978
809.830	246.376
809.958	263.129
810.087	256.570
810.215	250.806
810.343	257.118
810.471	255.882
810.599	245.484
810.727	256.570
810.855	250.269
810.983	250.172
811.112	247.796
811.240	249.613
811.368	247.570
811.496	254.516
811.624	252.269
811.752	252.118
811.880	260.925
812.008	252.860
812.137	263.430
812.265	244.720
812.393	246.903
812.521	236.602
812.649	252.118
812.777	235.269
812.905	241.882
813.033	248.032
813.162	245.710
813.290	235.849
813.418	242.075
813.546	242.548
813.674	238.108
813.802	234.409
813.930	237.753
814.058	232.011
814.187	234.731
814.315	237.215
814.443	232.505
814.571	235.301
814.699	228.280
814.827	236.710
814.955	238.484
815.083	228.301
815.212	233.484
815.340	229.688
815.468	244.882
815.596	227.742
815.724	235.957
815.852	239.301
815.980	232.398
816.108	228.505
816.237	230.656
816.365	244.602
816.493	232.742
816.621	238.677
816.749	224.430
816.877	298.301
817.005	244.301
817.133	234.946
817.262	229.688
817.390	223.065
817.518	235.602
817.646	218.774
817.774	219.538
817.902	213.645
818.030	221.559
818.158	225.366
818.287	224.054
818.415	215.366
818.543	220.516
818.671	223.258
818.799	221.204
818.927	211.935
819.055	236.280
819.183	224.495
819.312	241.161
819.440	221.032
819.568	216.624
819.696	214.570
819.824	221.022
819.952	215.935
820.080	216.097
820.208	217.925
820.337	221.806
820.465	212.333
820.593	219.849
820.721	213.161
820.849	211.570
820.977	216.183
821.105	215.817
821.233	208.602
821.362	219.581
821.490	202.828
821.618	216.742
821.746	209.290
821.874	213.355
822.002	205.065
822.130	211.011
822.258	211.828
822.387	207.914
822.515	217.065
822.643	210.226
822.771	203.495
822.899	215.151
823.027	207.172
823.155	214.301
823.283	221.731
823.412	220.581
823.540	205.839
823.668	203.226
823.796	208.892
823.924	204.796
824.052	203.925
824.180	211.323
824.308	205.656
824.437	217.452
824.565	208.591
824.693	197.570
824.821	201.968
824.949	209.097
825.077	203.183
825.205	201.366
825.333	203.247
825.462	204.376
825.590	199.645
825.718	198.763
825.846	203.065
825.974	203.871
826.102	200.656
826.230	200.817
826.358	206.581
826.487	198.301
826.615	198.731
826.743	195.215
826.871	201.290
826.999	195.344
827.127	200.075
827.255	199.452
827.383	197.548
827.512	195.548
827.640	204.849
827.768	218.161
827.896	189.914
828.024	194.301
828.152	194.258
828.280	195.763
828.408	194.925
828.537	199.344
828.665	192.559
828.793	195.796
828.921	195.839
829.049	194.419
829.177	193.323
829.305	193.634
829.433	191.226
829.562	192.258
829.690	192.925
829.818	194.516
829.946	186.946
830.074	186.731
830.202	187.097
830.330	186.065
830.458	184.129
830.587	194.237
830.715	186.753
830.843	186.151
830.971	193.548
831.099	191.624
831.227	212.108
831.355	187.323
831.483	191.366
831.612	190.172
831.740	182.301
831.868	188.258
831.996	201.086
832.124	184.054
832.252	195.871
832.380	187.161
832.508	188.527
832.637	182.667
832.765	190.054
832.893	187.817
833.021	188.043
833.149	182.301
833.277	185.011
833.405	192.172
833.533	181.462
833.662	189.247
833.790	183.226
833.918	190.366
834.046	183.376
834.174	181.613
834.302	188.731
834.430	176.591
834.558	183.624
834.687	189.194
834.815	185.914
834.943	179.194
835.071	188.183
835.199	187.000
835.327	180.559
835.455	196.204
835.583	184.914
835.712	184.548
835.840	185.161
835.968	176.914
836.096	190.581
836.224	176.527
836.352	187.032
836.480	176.989
836.608	176.634
836.737	185.559
836.865	181.796
836.993	187.849
837.121	192.989
837.249	180.495
837.377	178.688
837.505	171.043
837.633	181.333
837.762	184.344
837.890	179.323
838.018	181.710
838.146	175.613
838.274	176.430
838.402	177.828
838.530	199.086
838.658	182.785
838.787	187.645
838.915	171.183
839.043	184.839
839.171	175.151
839.299	178.731
839.427	193.516
839.555	187.269
839.683	172.376
839.812	178.376
839.940	171.860
840.068	183.742
840.196	205.355
840.324	190.667
840.452	181.828
840.580	174.710
840.708	169.796
840.837	172.624
840.965	174.140
841.093	171.516
841.221	180.323
841.349	175.452
841.477	171.559
841.605	173.570
841.733	175.011
841.862	180.183
841.990	175.247
842.118	170.097
842.246	176.075
842.374	164.710
842.502	183.505
842.630	175.419
842.758	169.258
842.887	179.839
843.015	188.882
843.143	165.978
843.271	172.968
843.399	175.473
843.527	171.677
843.655	168.677
843.783	172.258
843.912	168.613
844.040	168.032
844.168	172.785
844.296	188.785
844.424	176.548
844.552	180.452
844.680	175.871
844.808	169.000
844.937	172.441
845.065	172.355
845.193	186.817
845.321	175.860
845.449	176.151
845.577	171.183
845.705	170.570
845.833	166.763
845.962	179.559
846.090	173.667
846.218	182.892
846.346	178.731
846.474	171.065
846.602	167.065
846.730	175.925
846.858	173.258
846.987	171.054
847.115	179.839
847.243	179.312
847.371	164.355
847.499	166.065
847.627	170.108
847.755	170.129
847.883	177.161
848.012	176.312
848.140	161.505
848.268	171.946
848.396	171.097
848.524	173.753
848.652	167.731
848.780	165.957
848.908	175.699
849.037	170.333
849.165	165.946
849.293	175.839
849.421	172.387
849.549	172.484
849.677	168.806
849.805	178.323
849.933	166.882
850.062	175.054
850.190	165.301
850.318	170.441
850.446	171.871
850.574	167.871
850.702	165.699
850.830	164.957
850.958	172.527
851.087	175.247
851.215	165.882
851.343	170.785
851.471	171.011
851.599	175.978
851.727	174.484
851.855	170.022
851.983	175.086
852.112	165.215
852.240	176.871
852.368	177.742
852.496	166.559
852.624	171.172
852.752	172.280
852.880	171.774
853.008	162.280
853.137	165.462
853.265	170.968
853.393	168.151
853.521	165.914
853.649	174.172
853.777	164.613
853.905	162.376
854.033	164.763
854.162	160.839
854.290	166.602
854.418	180.387
854.546	202.290
854.674	183.882
854.802	168.516
854.930	164.860
855.058	171.108
855.187	166.065
855.315	179.548
855.443	165.172
855.571	163.957
855.699	176.548
855.827	157.645
855.955	162.011
856.083	164.806
856.212	166.032
856.340	166.140
856.468	168.333
856.596	164.839
856.724	171.183
856.852	184.688
856.980	162.258
857.108	158.247
857.237	160.925
857.365	168.484
857.493	172.548
857.621	168.237
857.749	164.720
857.877	167.946
858.005	161.140
858.133	167.505
858.262	157.366
858.390	160.333
858.518	158.839
858.646	170.753
858.774	158.656
858.902	157.925
859.030	162.419
859.158	165.118
859.287	164.344
859.415	165.978
859.543	162.075
859.671	165.613
859.799	172.183
859.927	159.323
860.055	158.118
860.183	158.172
860.312	158.946
860.440	161.968
860.568	157.462
860.696	174.054
860.824	176.430
860.952	160.699
861.080	163.634
861.208	165.000
861.337	160.473
861.465	177.806
861.593	168.032
861.721	165.677
861.849	169.000
861.977	162.065
862.105	166.194
862.233	163.473
862.362	162.151
862.490	156.946
862.618	165.312
862.746	163.409
862.874	163.796
863.002	164.871
863.130	165.882
863.258	163.118
863.387	169.505
863.515	169.161
863.643	169.860
863.771	164.763
863.899	163.871
864.027	170.742
864.155	192.204
864.283	160.323
864.412	157.032
864.540	163.462
864.668	157.946
864.796	162.516
864.924	160.892
865.052	156.215
865.180	177.968
865.308	162.194
865.437	163.828
865.565	159.097
865.693	157.054
865.821	157.548
865.949	176.957
866.077	164.140
866.205	164.602
866.333	168.323
866.462	155.484
866.590	168.290
866.718	164.355
866.846	157.849
866.974	165.194
867.102	157.989
867.230	165.140
867.358	162.989
867.487	169.989
867.615	170.828
867.743	158.484
867.871	173.624
867.999	161.398
868.127	173.495
868.255	178.376
868.383	152.903
868.512	163.968
868.640	157.645
868.768	159.559
868.896	169.860
869.024	159.280
869.152	160.000
869.280	157.151
869.408	157.978
869.537	160.011
869.665	156.785
869.793	159.925
869.921	160.538
870.049	152.774
870.177	158.570
870.305	155.699
870.433	160.570
870.562	159.226
870.690	161.656
870.818	167.108
870.946	155.183
871.074	149.215
871.202	161.301
871.330	152.914
871.458	162.366
871.587	160.484
871.715	162.032
871.843	164.570
871.971	167.731
872.099	153.903
872.227	161.301
872.355	156.667
872.483	151.667
872.612	164.860
872.740	160.075
872.868	155.882
872.996	162.849
873.124	169.710
873.252	159.710
873.380	153.344
873.508	167.151
873.637	167.065
873.765	159.871
873.893	155.484
874.021	163.667
874.149	157.258
874.277	161.097
874.405	166.763
874.533	168.280
874.662	154.591
874.790	164.731
874.918	156.290
875.046	158.785
875.174	159.000
875.302	155.129
875.430	156.452
875.558	164.269
875.687	161.591
875.815	160.581
875.943	162.946
876.071	161.903
876.199	159.817
876.327	160.247
876.455	156.613
876.583	156.290
876.712	163.226
876.840	161.688
876.968	155.043
877.096	159.194
877.224	159.441
877.352	153.398
877.480	161.398
877.608	170.817
877.737	162.269
877.865	156.323
877.993	162.237
878.121	165.581
878.249	160.430
878.377	155.344
878.505	164.022
878.633	159.430
878.762	153.699
878.890	157.602
879.018	163.570
879.146	157.312
879.274	188.484
879.402	164.914
879.530	158.172
879.658	159.903
879.787	159.570
879.915	155.118
880.043	158.387
880.171	199.215
880.299	160.871
880.427	158.398
880.555	152.452
880.683	160.817
880.812	159.312
880.940	155.151
881.068	166.903
881.196	157.806
881.324	157.129
881.452	156.215
881.580	163.151
881.708	154.151
881.837	163.269
881.965	160.333
882.093	151.914
882.221	151.333
882.349	149.774
882.477	155.409
882.605	158.108
882.733	161.344
882.862	154.656
882.990	166.086
883.118	169.215
883.246	167.430
883.374	161.065
883.502	162.376
883.630	167.258
883.758	154.333
883.887	162.903
884.015	160.333
884.143	162.699
884.271	160.570
884.399	154.645
884.527	166.946
884.655	159.129
884.783	164.828
884.912	184.398
885.040	166.387
885.168	158.430
885.296	171.269
885.424	159.581
885.552	158.462
885.680	172.892
885.808	163.430
885.937	163.151
886.065	161.634
886.193	158.968
886.321	161.301
886.449	156.376
886.577	157.204
886.705	171.151
886.833	149.849
886.962	162.409
887.090	164.172
887.218	157.505
887.346	154.548
887.474	155.140
887.602	158.957
887.730	153.161
887.858	153.032
887.987	156.914
888.115	162.108
888.243	155.677
888.371	169.957
888.499	157.570
888.627	156.398
888.755	170.161
888.883	159.699
889.012	160.075
889.140	159.710
889.268	161.516
889.396	154.452
889.524	164.333
889.652	153.280
889.780	158.065
889.908	161.731
890.037	163.849
890.165	155.452
890.293	161.742
890.421	159.753
890.549	151.409
890.677	152.527
890.805	161.355
890.933	159.860
891.062	158.452
891.190	161.753
891.318	153.409
891.446	156.935
891.574	150.280
891.702	154.591
891.830	153.097
891.958	167.215
892.087	165.355
892.215	161.581
892.343	164.290
892.471	161.097
892.599	153.763
892.727	162.301
892.855	179.140
892.983	148.785
893.112	154.559
893.240	168.129
893.368	155.183
893.496	166.505
893.624	161.473
893.752	179.237
893.880	156.849
894.008	165.301
894.137	153.548
894.265	161.473
894.393	155.129
894.521	163.925
894.649	158.290
894.777	151.151
894.905	202.333
895.033	152.398
895.162	157.473
895.290	166.806
895.418	160.914
895.546	197.688
895.674	160.527
895.802	200.613
895.930	161.419
896.058	155.989
896.187	159.828
896.315	154.204
896.443	164.344
896.571	188.473
896.699	161.946
896.827	152.323
896.955	156.720
897.083	165.505
897.212	157.548
897.340	157.634
897.468	156.097
897.596	158.570
897.724	154.656
897.852	155.785
897.980	150.591
898.108	165.452
898.237	157.118
898.365	155.892
898.493	161.247
898.621	159.677
898.749	156.237
898.877	156.075
899.005	159.559
899.133	158.968
899.262	173.140
899.390	156.247
899.518	162.258
899.646	155.473
899.774	154.312
899.902	154.226
900.030	167.140
900.158	157.398
900.287	163.172
900.415	154.882
900.543	162.237
900.671	165.022
900.799	158.495
900.927	155.957
901.055	167.086
901.183	169.054
901.312	169.151
901.440	155.011
901.568	157.043
901.696	157.118
901.824	156.946
901.952	154.828
902.080	164.957
902.208	160.989
902.337	167.516
902.465	153.602
902.593	176.366
902.721	185.548
902.849	178.688
902.977	161.075
903.105	160.731
903.233	156.849
903.362	150.344
903.490	165.785
903.618	160.516
903.746	153.957
903.874	162.409
904.002	158.806
904.130	170.796
904.258	148.774
904.387	166.828
904.515	152.194
904.643	160.226
904.771	158.495
904.899	155.796
905.027	163.538
905.155	159.989
905.283	152.903
905.412	165.645
905.540	160.086
905.668	162.129
905.796	158.129
905.924	157.774
906.052	158.344
906.180	166.462
906.308	158.957
906.437	156.140
906.565	162.548
906.693	170.613
906.821	154.312
906.949	158.505
907.077	155.785
907.205	164.312
907.333	151.366
907.462	153.656
907.590	155.860
907.718	157.355
907.846	163.871
907.974	157.344
908.102	156.000
908.230	160.699
908.358	156.806
908.487	152.075
908.615	172.581
908.743	166.903
908.871	162.763
908.999	155.022
909.127	154.086
909.255	170.591
909.383	157.634
909.512	151.462
909.640	174.645
909.768	158.409
909.896	165.215
910.024	166.667
910.152	167.505
910.280	168.645
910.408	152.774
910.537	159.237
910.665	163.817
910.793	164.946
910.921	162.849
911.049	169.129
911.177	172.699
911.305	159.548
911.433	158.215
911.562	162.935
911.690	165.215
911.818	164.043
911.946	163.172
912.074	164.828
912.202	163.075
912.330	177.935
912.458	159.108
912.587	164.871
912.715	165.183
912.843	173.957
912.971	168.312
913.099	184.054
913.227	169.957
913.355	166.548
913.483	181.677
913.612	177.957
913.740	186.699
913.868	167.441
