90_100_90_Pol_at_750.00nm_cut_at_1179.00Y_01.dat
03.07.2023
11:18:31
cut middle at Y: 1179.00
top cursor: 1231 down cursor: 1127 mean of: 104 lines , 2560 datapoints
wavelength(nm)	intensity[arb. units]
585.996	13469.337
586.124	13205.442
586.252	13198.952
586.380	13220.183
586.508	13238.740
586.637	13339.875
586.765	13327.808
586.893	13328.019
587.021	13373.106
587.149	13355.548
587.277	13393.154
587.405	13387.250
587.533	13424.356
587.662	13459.433
587.790	13438.019
587.918	13391.942
588.046	13390.760
588.174	13428.058
588.302	13412.433
588.430	13409.442
588.558	13417.346
588.687	13440.519
588.815	13458.000
588.943	13386.587
589.071	13403.625
589.199	13422.625
589.327	13388.096
589.455	13443.750
589.583	13385.462
589.712	13386.538
589.840	13385.635
589.968	13379.519
590.096	13387.731
590.224	13361.183
590.352	13464.798
590.480	13370.058
590.608	13352.587
590.737	13374.327
590.865	13413.115
590.993	13314.029
591.121	13375.433
591.249	13339.288
591.377	13367.394
591.505	13428.202
591.633	13339.212
591.762	13328.471
591.890	13340.029
592.018	13393.933
592.146	13380.029
592.274	13332.856
592.402	13329.731
592.530	13503.625
592.658	13426.558
592.787	13433.077
592.915	13500.962
593.043	13380.356
593.171	13432.615
593.299	13415.058
593.427	13426.096
593.555	13462.990
593.683	13438.673
593.812	13492.837
593.940	13490.202
594.068	13518.952
594.196	13483.212
594.324	13538.337
594.452	13717.721
594.580	13586.673
594.708	13649.644
594.837	13640.606
594.965	13746.654
595.093	13684.654
595.221	13750.596
595.349	13718.346
595.477	13761.875
595.605	13770.606
595.733	13753.596
595.862	13785.644
595.990	13793.163
596.118	13828.029
596.246	13912.038
596.374	13829.115
596.502	13875.385
596.630	13872.702
596.758	13827.115
596.887	13895.029
597.015	13886.567
597.143	13897.019
597.271	13888.750
597.399	13906.000
597.527	13892.750
597.655	13874.490
597.783	13906.154
597.912	13918.404
598.040	13937.317
598.168	13901.913
598.296	13811.154
598.424	14006.173
598.552	13813.442
598.680	13844.144
598.808	13888.721
598.937	13828.500
599.065	13840.635
599.193	13887.452
599.321	13883.654
599.449	13809.231
599.577	13807.625
599.705	13798.567
599.833	13792.808
599.962	13738.192
600.090	13781.442
600.218	13757.837
600.346	13776.231
600.474	13729.981
600.602	13714.519
600.730	13749.125
600.858	13767.279
600.987	13834.837
601.115	13729.712
601.243	13813.058
601.371	13843.202
601.499	13797.106
601.627	13826.231
601.755	13788.231
601.883	13836.827
602.012	13747.577
602.140	13852.260
602.268	13807.356
602.396	13935.308
602.524	13855.587
602.652	13937.663
602.780	13971.865
602.908	13968.375
603.037	14017.885
603.165	14039.308
603.293	14029.865
603.421	14057.635
603.549	14141.404
603.677	14124.327
603.805	14170.933
603.933	14180.740
604.062	14247.538
604.190	14328.865
604.318	14343.606
604.446	14292.904
604.574	14381.269
604.702	14411.490
604.830	14407.615
604.958	14442.702
605.087	14527.404
605.215	14557.221
605.343	14676.750
605.471	14622.452
605.599	14635.933
605.727	14770.067
605.855	14700.106
605.983	14754.788
606.112	14761.808
606.240	14765.231
606.368	14804.721
606.496	14796.548
606.624	14867.231
606.752	14829.067
606.880	14906.183
607.008	14867.154
607.137	14867.144
607.265	14980.356
607.393	14898.202
607.521	14966.875
607.649	14884.481
607.777	14910.952
607.905	14926.760
608.033	14867.471
608.162	14885.933
608.290	14866.644
608.418	14970.538
608.546	14955.606
608.674	14963.865
608.802	14868.663
608.930	14884.327
609.058	14827.846
609.187	14808.990
609.315	14846.913
609.443	14814.087
609.571	14946.019
609.699	14813.769
609.827	14857.356
609.955	14778.029
610.083	14743.077
610.212	14742.212
610.340	14696.087
610.468	14733.933
610.596	14750.038
610.724	14678.885
610.852	14761.933
610.980	14742.779
611.108	14693.981
611.237	14662.923
611.365	14678.077
611.493	14637.192
611.621	14670.596
611.749	14697.038
611.877	14732.558
612.005	14702.760
612.133	14749.913
612.262	14718.913
612.390	14761.462
612.518	14786.019
612.646	14740.798
612.774	14760.673
612.902	14806.490
613.030	14808.404
613.158	14759.837
613.287	14837.308
613.415	14766.365
613.543	14840.865
613.671	14829.308
613.799	14871.913
613.927	14911.846
614.055	14923.788
614.183	14947.846
614.312	14917.423
614.440	15083.288
614.568	15015.048
614.696	15039.433
614.824	15067.952
614.952	15087.740
615.080	15133.375
615.208	15197.933
615.337	15226.894
615.465	15167.577
615.593	15266.308
615.721	15239.519
615.849	15368.856
615.977	15272.962
616.105	15340.788
616.233	15319.250
616.362	15413.760
616.490	15348.125
616.618	15432.654
616.746	15563.471
616.874	15505.077
617.002	15485.337
617.130	15473.038
617.258	15505.356
617.387	15500.529
617.515	15519.567
617.643	15526.038
617.771	15647.433
617.899	15547.385
618.027	15621.144
618.155	15637.288
618.283	15601.788
618.412	15641.673
618.540	15729.519
618.668	15698.654
618.796	15714.673
618.924	15603.933
619.052	15679.635
619.180	15690.106
619.308	15686.788
619.437	15672.202
619.565	15681.750
619.693	15612.087
619.821	15708.038
619.949	15621.942
620.077	15655.452
620.205	15702.817
620.333	15686.087
620.462	15660.750
620.590	15675.327
620.718	15675.231
620.846	15691.712
620.974	15702.769
621.102	15720.288
621.230	15711.500
621.358	15883.337
621.487	15699.856
621.615	15713.817
621.743	15663.798
621.871	15787.529
621.999	15638.654
622.127	15653.298
622.255	15618.875
622.383	15635.413
622.512	15593.250
622.640	15636.913
622.768	15666.125
622.896	15709.971
623.024	15676.798
623.152	15634.731
623.280	15721.288
623.408	15633.067
623.537	15668.029
623.665	15625.240
623.793	15704.173
623.921	15684.779
624.049	15629.837
624.177	15663.750
624.305	15611.971
624.433	15671.154
624.562	15645.317
624.690	15782.087
624.818	15590.808
624.946	15621.077
625.074	15623.971
625.202	15604.423
625.330	15618.240
625.458	15739.029
625.587	15602.221
625.715	15677.375
625.843	15608.913
625.971	15688.962
626.099	15660.558
626.227	15660.298
626.355	15627.769
626.483	15714.635
626.612	15658.971
626.740	15691.019
626.868	15657.500
626.996	15705.115
627.124	15676.250
627.252	15638.221
627.380	15670.740
627.508	15663.788
627.637	15736.433
627.765	15711.269
627.893	15786.644
628.021	15813.337
628.149	15721.635
628.277	15876.260
628.405	15767.288
628.533	15767.433
628.662	15821.048
628.790	15873.923
628.918	15806.163
629.046	15969.654
629.174	15842.490
629.302	15903.798
629.430	15839.769
629.558	15903.337
629.687	15874.654
629.815	15946.808
629.943	16059.962
630.071	15990.356
630.199	15927.087
630.327	16013.904
630.455	16042.606
630.583	16061.385
630.712	16056.692
630.840	16082.019
630.968	16091.471
631.096	16131.673
631.224	16145.356
631.352	16272.567
631.480	16154.500
631.608	16317.904
631.737	16153.183
631.865	16289.567
631.993	16276.115
632.121	16386.183
632.249	16221.942
632.377	16247.462
632.505	16256.962
632.633	16285.846
632.762	16237.606
632.890	16274.087
633.018	16291.423
633.146	16260.471
633.274	16246.904
633.402	16265.971
633.530	16267.202
633.658	16253.413
633.787	16297.683
633.915	16280.077
634.043	16294.394
634.171	16309.663
634.299	16293.394
634.427	16271.192
634.555	16489.654
634.683	16292.885
634.812	16286.404
634.940	16221.971
635.068	16235.798
635.196	16249.404
635.324	16204.356
635.452	16198.038
635.580	16290.327
635.708	16162.058
635.837	16192.308
635.965	16128.471
636.093	16120.692
636.221	16078.077
636.349	16008.481
636.477	16000.163
636.605	16088.385
636.733	16033.769
636.862	15986.971
636.990	16021.490
637.118	15949.990
637.246	15931.683
637.374	16066.240
637.502	15873.346
637.630	15888.260
637.758	15826.260
637.887	15768.548
638.015	15910.760
638.143	15835.019
638.271	15756.038
638.399	15794.692
638.527	15709.240
638.655	15736.529
638.783	15740.548
638.912	15779.654
639.040	15661.558
639.168	15635.846
639.296	15637.279
639.424	15719.519
639.552	15663.077
639.680	15711.808
639.808	15610.577
639.937	15597.404
640.065	15613.317
640.193	15618.558
640.321	15686.827
640.449	15699.481
640.577	15580.760
640.705	15613.087
640.833	15611.798
640.962	15719.337
641.090	15588.442
641.218	15612.625
641.346	15709.269
641.474	15617.385
641.602	15623.721
641.730	15630.058
641.858	15612.048
641.987	15616.048
642.115	15836.231
642.243	15685.788
642.371	15829.087
642.499	15680.817
642.627	15780.375
642.755	15700.135
642.883	15698.442
643.012	15743.673
643.140	15804.721
643.268	15796.577
643.396	15711.212
643.524	15785.779
643.652	15872.875
643.780	15785.442
643.908	15799.558
644.037	15890.673
644.165	15877.356
644.293	15975.481
644.421	15828.096
644.549	15865.058
644.677	15892.981
644.805	15869.298
644.933	15864.000
645.062	15909.144
645.190	16080.865
645.318	15917.740
645.446	15873.538
645.574	15886.981
645.702	15957.240
645.830	15949.510
645.958	15883.163
646.087	15916.212
646.215	15896.606
646.343	15901.125
646.471	16095.519
646.599	15889.962
646.727	15925.500
646.855	15920.394
646.983	15904.135
647.112	16021.087
647.240	15900.663
647.368	15993.125
647.496	15941.192
647.624	15928.519
647.752	15924.827
647.880	15903.865
648.008	15949.635
648.137	15940.683
648.265	15884.673
648.393	15955.356
648.521	15875.817
648.649	16004.404
648.777	15937.817
648.905	15882.356
649.033	15937.923
649.162	15796.981
649.290	15780.240
649.418	15798.952
649.546	15936.048
649.674	15746.615
649.802	15747.817
649.930	15733.183
650.058	15697.038
650.187	15773.760
650.315	15675.394
650.443	15702.990
650.571	15656.913
650.699	15645.942
650.827	15598.058
650.955	15609.471
651.083	15660.212
651.212	15581.452
651.340	15581.981
651.468	15551.885
651.596	15553.365
651.724	15555.798
651.852	15482.183
651.980	15520.548
652.108	15501.740
652.237	15463.404
652.365	15451.846
652.493	15423.760
652.621	15426.933
652.749	15410.413
652.877	15412.058
653.005	15424.394
653.133	15365.317
653.262	15337.712
653.390	15339.510
653.518	15494.202
653.646	15310.740
653.774	15264.038
653.902	15367.875
654.030	15325.260
654.158	15220.817
654.287	15307.010
654.415	15263.423
654.543	15267.808
654.671	15218.385
654.799	15230.356
654.927	15220.115
655.055	15171.538
655.183	15166.481
655.312	15147.894
655.440	15134.913
655.568	15137.519
655.696	15202.654
655.824	15109.423
655.952	15141.933
656.080	15094.990
656.208	15090.856
656.337	15143.365
656.465	15263.481
656.593	15050.981
656.721	15116.981
656.849	15156.779
656.977	14973.096
657.105	15025.096
657.233	15035.240
657.362	15102.404
657.490	15032.962
657.618	14998.760
657.746	14994.644
657.874	14915.029
658.002	14919.481
658.130	14906.048
658.258	14897.529
658.387	14830.942
658.515	14830.490
658.643	14829.971
658.771	14909.250
658.899	14816.471
659.027	14844.250
659.155	14815.615
659.283	14799.625
659.412	14830.356
659.540	14850.885
659.668	14839.904
659.796	14903.500
659.924	14845.644
660.052	14948.442
660.180	14794.317
660.308	14909.154
660.437	14888.596
660.565	14802.933
660.693	14756.192
660.821	14949.942
660.949	14757.279
661.077	14775.481
661.205	14897.606
661.333	14762.798
661.462	14731.923
661.590	14822.760
661.718	14717.654
661.846	14796.288
661.974	14785.913
662.102	14742.490
662.230	14704.019
662.358	14630.894
662.487	14683.250
662.615	14698.606
662.743	14679.471
662.871	14689.298
662.999	14636.433
663.127	14631.510
663.255	14624.587
663.383	14811.240
663.512	14622.635
663.640	14655.538
663.768	14674.423
663.896	14618.000
664.024	14614.635
664.152	14632.452
664.280	14709.317
664.408	14611.260
664.537	14614.596
664.665	14617.385
664.793	14640.462
664.921	14601.904
665.049	14659.212
665.177	14588.519
665.305	14632.423
665.433	14632.135
665.562	14777.115
665.690	14674.587
665.818	14780.837
665.946	14572.106
666.074	14621.260
666.202	14591.308
666.330	14575.731
666.458	14979.740
666.587	14583.962
666.715	14587.394
666.843	14554.856
666.971	14587.962
667.099	14659.077
667.227	14683.587
667.355	14706.231
667.483	14582.683
667.612	14611.096
667.740	14659.990
667.868	14552.346
667.996	14548.577
668.124	14625.471
668.252	14682.394
668.380	14567.442
668.508	14580.356
668.637	14538.019
668.765	14575.115
668.893	14563.221
669.021	14525.029
669.149	14593.010
669.277	14500.337
669.405	14593.365
669.533	14586.096
669.662	14524.317
669.790	14495.529
669.918	14551.519
670.046	14642.740
670.174	14460.202
670.302	14423.731
670.430	14445.308
670.558	14500.423
670.687	14638.529
670.815	14416.202
670.943	14437.067
671.071	14352.712
671.199	14323.904
671.327	14374.846
671.455	14380.183
671.583	14349.346
671.712	14338.654
671.840	14386.548
671.968	14463.673
672.096	14441.135
672.224	14262.663
672.352	14235.019
672.480	14185.750
672.608	14238.327
672.737	14201.192
672.865	14135.106
672.993	14149.087
673.121	14115.788
673.249	14100.029
673.377	14078.288
673.505	14052.625
673.633	14086.433
673.762	13991.442
673.890	14037.038
674.018	14044.856
674.146	13953.702
674.274	13957.269
674.402	13971.788
674.530	13923.077
674.658	13858.635
674.787	13873.875
674.915	14007.837
675.043	13839.337
675.171	13827.519
675.299	13771.298
675.427	13745.058
675.555	13719.298
675.683	13749.779
675.812	13682.875
675.940	13701.529
676.068	13570.990
676.196	13682.913
676.324	13552.933
676.452	13537.808
676.580	13511.183
676.708	13486.923
676.837	13479.394
676.965	13548.048
677.093	13587.846
677.221	13452.048
677.349	13352.163
677.477	13429.404
677.605	13297.971
677.733	13314.635
677.862	13294.712
677.990	13312.375
678.118	13316.212
678.246	13275.038
678.374	13268.125
678.502	13208.144
678.630	13141.673
678.758	13133.125
678.887	13266.212
679.015	13033.413
679.143	13042.154
679.271	13010.327
679.399	13047.365
679.527	13019.750
679.655	13066.788
679.783	12936.260
679.912	12920.298
680.040	13083.144
680.168	12922.952
680.296	12931.615
680.424	12862.048
680.552	12877.125
680.680	12849.894
680.808	12803.558
680.937	12762.837
681.065	12823.125
681.193	12744.808
681.321	12709.481
681.449	12804.913
681.577	12712.587
681.705	12673.163
681.833	12708.529
681.962	12674.433
682.090	12649.760
682.218	12658.846
682.346	12646.615
682.474	12581.365
682.602	12561.231
682.730	12621.423
682.858	12538.548
682.987	12553.452
683.115	12564.712
683.243	12519.500
683.371	12534.375
683.499	12493.481
683.627	12500.577
683.755	12495.846
683.883	12473.615
684.012	12483.337
684.140	12406.769
684.268	12400.750
684.396	12495.846
684.524	12448.990
684.652	12445.827
684.780	12432.865
684.908	12425.433
685.037	12415.481
685.165	12430.212
685.293	12444.019
685.421	12378.865
685.549	12355.894
685.677	12330.058
685.805	12375.231
685.933	12322.721
686.062	12355.067
686.190	12273.010
686.318	12299.000
686.446	12262.856
686.574	12215.077
686.702	12263.942
686.830	12193.356
686.958	12269.625
687.087	12163.990
687.215	12216.981
687.343	12206.029
687.471	12342.750
687.599	12096.846
687.727	12085.846
687.855	12051.231
687.983	12010.413
688.112	12095.298
688.240	12061.317
688.368	12057.981
688.496	12002.317
688.624	11935.269
688.752	12077.731
688.880	11939.327
689.008	11912.990
689.137	11906.269
689.265	11849.529
689.393	11846.087
689.521	11853.625
689.649	11877.577
689.777	11832.548
689.905	11887.115
690.033	11738.058
690.162	11727.837
690.290	11759.712
690.418	11687.962
690.546	11692.577
690.674	11684.279
690.802	11669.404
690.930	11614.029
691.058	11614.135
691.187	11572.423
691.315	11548.433
691.443	11548.202
691.571	11504.529
691.699	11440.298
691.827	11416.692
691.955	11416.692
692.083	11365.385
692.212	11369.654
692.340	11331.587
692.468	11360.250
692.596	11296.635
692.724	11267.596
692.852	11282.067
692.980	11225.740
693.108	11253.606
693.237	11160.750
693.365	11113.788
693.493	11104.385
693.621	11076.971
693.749	11025.702
693.877	11033.673
694.005	10953.462
694.133	10921.779
694.262	10999.260
694.390	10852.644
694.518	10835.096
694.646	10835.183
694.774	10755.558
694.902	10743.740
695.030	10730.798
695.158	10683.779
695.287	10693.327
695.415	10649.029
695.543	10604.442
695.671	10578.087
695.799	10657.058
695.927	10530.433
696.055	10541.702
696.183	10424.202
696.312	10621.077
696.440	10431.471
696.568	10427.740
696.696	10297.106
696.824	10235.048
696.952	10253.240
697.080	10220.721
697.208	10152.577
697.337	10123.067
697.465	10103.596
697.593	10039.558
697.721	10170.865
697.849	10015.356
697.977	10039.019
698.105	10071.529
698.233	10000.029
698.362	9893.981
698.490	9998.337
698.618	9829.231
698.746	9806.788
698.874	9847.981
699.002	9774.125
699.130	9792.019
699.258	9726.750
699.387	9619.663
699.515	9682.337
699.643	9657.894
699.771	9713.904
699.899	9558.894
700.027	9501.846
700.155	9545.962
700.283	9430.962
700.412	9410.702
700.540	9442.587
700.668	9455.298
700.796	9327.894
700.924	9315.625
701.052	9342.202
701.180	9301.654
701.308	9194.019
701.437	9147.644
701.565	9148.731
701.693	9175.529
701.821	9279.827
701.949	9030.731
702.077	9062.654
702.205	9071.510
702.333	8973.875
702.462	8915.260
702.590	8952.490
702.718	8872.731
702.846	9030.933
702.974	8764.769
703.102	8743.567
703.230	8780.481
703.358	8681.163
703.487	8660.298
703.615	8658.962
703.743	8577.221
703.871	8564.692
703.999	8520.298
704.127	8479.212
704.255	8430.577
704.383	8446.173
704.512	8482.702
704.640	8402.769
704.768	8433.356
704.896	8293.471
705.024	8222.413
705.152	8230.269
705.280	8248.077
705.408	8139.240
705.537	8107.731
705.665	8070.500
705.793	8052.452
705.921	8018.846
706.049	7992.827
706.177	7988.010
706.305	7912.663
706.433	7951.413
706.562	7887.019
706.690	7887.106
706.818	7841.625
706.946	7758.635
707.074	7703.038
707.202	7673.548
707.330	7650.904
707.458	7646.827
707.587	7584.981
707.715	7619.452
707.843	7591.154
707.971	7582.673
708.099	7480.077
708.227	7448.096
708.355	7435.106
708.483	7377.221
708.612	7376.837
708.740	7298.394
708.868	7298.663
708.996	7333.904
709.124	7296.423
709.252	7223.567
709.380	7236.529
709.508	7179.135
709.637	7183.423
709.765	7110.385
709.893	7139.779
710.021	7040.471
710.149	7137.260
710.277	6990.135
710.405	6977.106
710.533	6952.913
710.662	6928.144
710.790	7006.106
710.918	6854.394
711.046	6903.077
711.174	6837.740
711.302	6840.038
711.430	6778.423
711.558	6775.798
711.687	6745.721
711.815	6695.154
711.943	6659.173
712.071	6650.500
712.199	6660.817
712.327	6672.933
712.455	6564.673
712.583	6711.865
712.712	6545.952
712.840	6563.308
712.968	6484.798
713.096	6464.163
713.224	6424.827
713.352	6405.327
713.480	6357.692
713.608	6342.423
713.737	6299.433
713.865	6361.615
713.993	6288.135
714.121	6258.010
714.249	6220.798
714.377	6175.221
714.505	6177.788
714.633	6163.692
714.762	6140.452
714.890	6117.798
715.018	6062.558
715.146	6086.683
715.274	6019.577
715.402	5980.683
715.530	5977.173
715.658	5999.096
715.787	5933.625
715.915	6001.712
716.043	5901.279
716.171	5993.433
716.299	5808.183
716.427	5867.712
716.555	5792.212
716.683	5774.587
716.812	5727.865
716.940	5720.558
717.068	5655.308
717.196	5791.221
717.324	5667.231
717.452	5635.519
717.580	5674.212
717.708	5561.702
717.837	5564.846
717.965	5579.500
718.093	5519.144
718.221	5541.154
718.349	5532.577
718.477	5412.750
718.605	5502.423
718.733	5413.442
718.862	5424.798
718.990	5313.644
719.118	5364.058
719.246	5301.163
719.374	5272.173
719.502	5304.125
719.630	5378.433
719.758	5187.692
719.887	5199.173
720.015	5192.827
720.143	5199.481
720.271	5113.596
720.399	5134.192
720.527	5070.558
720.655	5108.183
720.783	5018.000
720.912	4972.577
721.040	4970.260
721.168	4973.817
721.296	4911.106
721.424	4885.721
721.552	4852.087
721.680	4907.385
721.808	4850.212
721.937	4822.942
722.065	4838.240
722.193	4784.760
722.321	4768.865
722.449	4729.442
722.577	4668.279
722.705	4658.615
722.833	4648.096
722.962	4641.163
723.090	4585.163
723.218	4558.144
723.346	4576.433
723.474	4508.192
723.602	4474.115
723.730	4452.663
723.858	4425.558
723.987	4426.923
724.115	4379.433
724.243	4417.644
724.371	4340.760
724.499	4339.337
724.627	4297.135
724.755	4288.327
724.883	4334.798
725.012	4348.048
725.140	4246.538
725.268	4178.654
725.396	4227.981
725.524	4278.837
725.652	4109.250
725.780	4192.173
725.908	4084.875
726.037	4077.144
726.165	4064.317
726.293	3997.317
726.421	4002.981
726.549	3994.808
726.677	3989.538
726.805	3914.894
726.933	3933.663
727.062	3895.029
727.190	3868.875
727.318	3829.077
727.446	3814.471
727.574	3774.442
727.702	3760.365
727.830	3777.375
727.958	3747.385
728.087	3778.413
728.215	3808.933
728.343	3683.519
728.471	3690.875
728.599	3756.779
728.727	3625.029
728.855	3601.490
728.983	3570.817
729.112	3561.221
729.240	3556.529
729.368	3542.010
729.496	3521.173
729.624	3508.962
729.752	3457.337
729.880	3440.010
730.008	3418.837
730.137	3410.827
730.265	3397.433
730.393	3530.817
730.521	3457.029
730.649	3323.490
730.777	3303.760
730.905	3301.885
731.033	3253.308
731.162	3338.529
731.290	3310.952
731.418	3238.846
731.546	3200.144
731.674	3212.115
731.802	3166.240
731.930	3221.788
732.058	3234.010
732.187	3150.913
732.315	3160.144
732.443	3202.894
732.571	3114.885
732.699	3097.019
732.827	3099.567
732.955	3019.788
733.083	3001.154
733.212	3041.202
733.340	2985.673
733.468	2977.596
733.596	2971.019
733.724	2925.356
733.852	2943.413
733.980	2913.923
734.108	3057.298
734.237	2922.269
734.365	2887.202
734.493	2872.760
734.621	2861.375
734.749	2826.673
734.877	2859.308
735.005	2815.308
735.133	2778.154
735.262	2863.481
735.390	2754.327
735.518	2748.587
735.646	2798.721
735.774	2788.712
735.902	2793.500
736.030	2689.433
736.158	2705.894
736.287	2702.192
736.415	2668.317
736.543	2662.337
736.671	2638.481
736.799	2653.298
736.927	2639.413
737.055	2719.904
737.183	2581.933
737.312	2553.885
737.440	2567.962
737.568	2644.952
737.696	2606.712
737.824	2532.817
737.952	2789.740
738.080	2495.625
738.208	2541.394
738.337	2495.587
738.465	2492.663
738.593	2463.779
738.721	2449.875
738.849	2505.856
738.977	2420.452
739.105	2429.577
739.233	2418.577
739.362	2366.462
739.490	2363.769
739.618	2399.394
739.746	2397.779
739.874	2341.106
740.002	2360.990
740.130	2346.375
740.258	2308.827
740.387	2359.385
740.515	2332.490
740.643	2327.365
740.771	2358.654
740.899	2288.385
741.027	2272.827
741.155	2274.115
741.283	2243.567
741.412	2320.144
741.540	2276.125
741.668	2266.288
741.796	2274.221
741.924	2241.846
742.052	2263.240
742.180	2224.115
742.308	2201.615
742.437	2207.269
742.565	2202.433
742.693	2197.163
742.821	2179.346
742.949	2142.000
743.077	2138.692
743.205	2145.365
743.333	2131.817
743.462	2125.615
743.590	2107.471
743.718	2107.760
743.846	2087.683
743.974	2104.558
744.102	2063.327
744.230	2062.192
744.358	2054.769
744.487	2035.279
744.615	2015.933
744.743	2019.692
744.871	2013.971
744.999	1982.433
745.127	1997.558
745.255	1959.837
745.383	1957.221
745.512	1945.365
745.640	1932.394
745.768	1942.433
745.896	1918.663
746.024	1914.500
746.152	1906.298
746.280	1902.808
746.408	1891.769
746.537	1873.875
746.665	1883.625
746.793	1846.788
746.921	1843.885
747.049	1837.625
747.177	1819.365
747.305	1830.942
747.433	1819.481
747.562	1788.212
747.690	1787.548
747.818	1767.981
747.946	1767.788
748.074	1742.231
748.202	1756.308
748.330	1733.452
748.458	1713.337
748.587	1729.548
748.715	1723.673
748.843	1693.740
748.971	1692.942
749.099	1700.875
749.227	1674.327
749.355	1687.712
749.483	1634.913
749.612	1657.462
749.740	1654.596
749.868	1634.212
749.996	1631.875
750.124	1635.462
750.252	1603.231
750.380	1606.288
750.508	1609.462
750.637	1587.760
750.765	1583.481
750.893	1557.942
751.021	1562.308
751.149	1557.212
751.277	1535.962
751.405	1522.029
751.533	1542.606
751.662	1493.875
751.790	1507.644
751.918	1488.846
752.046	1489.885
752.174	1471.760
752.302	1454.721
752.430	1456.125
752.558	1458.423
752.687	1441.308
752.815	1442.490
752.943	1439.183
753.071	1414.913
753.199	1419.740
753.327	1438.250
753.455	1392.644
753.583	1375.452
753.712	1373.394
753.840	1387.365
753.968	1363.135
754.096	1371.365
754.224	1364.731
754.352	1330.846
754.480	1360.308
754.608	1335.769
754.737	1332.337
754.865	1321.933
754.993	1322.702
755.121	1304.750
755.249	1286.808
755.377	1263.365
755.505	1284.731
755.633	1279.750
755.762	1255.740
755.890	1275.885
756.018	1261.856
756.146	1245.913
756.274	1223.942
756.402	1226.769
756.530	1242.413
756.658	1213.250
756.787	1197.644
756.915	1203.856
757.043	1179.577
757.171	1195.798
757.299	1184.981
757.427	1167.212
757.555	1168.529
757.683	1162.452
757.812	1155.712
757.940	1146.404
758.068	1139.654
758.196	1134.904
758.324	1121.625
758.452	1131.625
758.580	1126.346
758.708	1106.952
758.837	1113.067
758.965	1120.769
759.093	1103.923
759.221	1065.856
759.349	1057.692
759.477	1069.567
759.605	1051.750
759.733	1073.750
759.862	1053.481
759.990	1046.471
760.118	1040.404
760.246	1047.471
760.374	1039.981
760.502	1037.529
760.630	1010.087
760.758	1011.692
760.887	1015.462
761.015	1000.798
761.143	1000.442
761.271	999.115
761.399	979.981
761.527	991.433
761.655	990.769
761.783	961.865
761.912	968.750
762.040	967.231
762.168	947.827
762.296	950.260
762.424	943.000
762.552	948.663
762.680	934.846
762.808	940.260
762.937	931.481
763.065	907.596
763.193	903.625
763.321	901.423
763.449	898.106
763.577	878.096
763.705	914.692
763.833	898.144
763.962	872.558
764.090	873.894
764.218	865.846
764.346	859.788
764.474	863.337
764.602	859.654
764.730	845.981
764.858	852.673
764.987	848.000
765.115	837.019
765.243	827.692
765.371	832.962
765.499	822.702
765.627	825.538
765.755	809.827
765.883	813.923
766.012	806.510
766.140	803.260
766.268	790.288
766.396	798.471
766.524	797.317
766.652	782.962
766.780	784.779
766.908	783.731
767.037	792.317
767.165	773.240
767.293	767.663
767.421	773.067
767.549	753.615
767.677	773.721
767.805	750.279
767.933	756.346
768.062	738.933
768.190	740.933
768.318	734.269
768.446	729.798
768.574	729.019
768.702	726.385
768.830	724.548
768.958	712.962
769.087	728.231
769.215	716.894
769.343	716.952
769.471	722.923
769.599	702.519
769.727	700.712
769.855	693.625
769.983	721.971
770.112	689.337
770.240	680.702
770.368	685.413
770.496	676.942
770.624	684.260
770.752	670.135
770.880	677.019
771.008	668.952
771.137	658.865
771.265	661.231
771.393	651.990
771.521	661.106
771.649	661.529
771.777	693.192
771.905	692.279
772.033	678.808
772.162	629.904
772.290	636.760
772.418	641.279
772.546	626.183
772.674	639.000
772.802	622.769
772.930	625.365
773.058	623.817
773.187	617.346
773.315	604.096
773.443	614.817
773.571	619.558
773.699	607.596
773.827	618.394
773.955	626.356
774.083	602.712
774.212	593.327
774.340	595.058
774.468	592.471
774.596	594.173
774.724	595.163
774.852	599.788
774.980	578.163
775.108	578.192
775.237	575.981
775.365	576.798
775.493	581.048
775.621	567.500
775.749	575.404
775.877	571.529
776.005	567.490
776.133	557.529
776.262	557.000
776.390	555.904
776.518	552.481
776.646	555.567
776.774	543.606
776.902	544.769
777.030	540.712
777.158	543.740
777.287	553.279
777.415	535.433
777.543	541.837
777.671	539.740
777.799	533.308
777.927	532.798
778.055	526.452
778.183	519.750
778.312	521.240
778.440	526.394
778.568	540.865
778.696	526.067
778.824	518.942
778.952	520.750
779.080	512.510
779.208	515.529
779.337	504.731
779.465	519.606
779.593	500.288
779.721	507.548
779.849	505.865
779.977	500.375
780.105	497.087
780.233	496.481
780.362	492.038
780.490	485.615
780.618	495.596
780.746	485.096
780.874	480.452
781.002	482.635
781.130	479.942
781.258	471.644
781.387	480.067
781.515	476.029
781.643	469.981
781.771	474.558
781.899	480.567
782.027	460.519
782.155	460.644
782.283	463.731
782.412	473.433
782.540	466.721
782.668	466.500
782.796	462.490
782.924	469.577
783.052	466.365
783.180	453.654
783.308	452.712
783.437	451.029
783.565	454.183
783.693	449.490
783.821	446.654
783.949	447.567
784.077	444.163
784.205	440.452
784.333	432.798
784.462	436.269
784.590	436.375
784.718	424.365
784.846	441.798
784.974	448.327
785.102	431.135
785.230	429.462
785.358	427.625
785.487	424.433
785.615	423.308
785.743	419.923
785.871	426.096
785.999	422.144
786.127	426.471
786.255	413.596
786.383	412.981
786.512	412.692
786.640	406.317
786.768	408.760
786.896	406.337
787.024	397.942
787.152	403.808
787.280	421.519
787.408	399.423
787.537	412.587
787.665	404.750
787.793	394.933
787.921	393.981
788.049	395.269
788.177	396.567
788.305	391.548
788.433	398.269
788.562	387.827
788.690	384.587
788.818	391.625
788.946	383.558
789.074	375.865
789.202	378.452
789.330	374.548
789.458	383.481
789.587	376.779
789.715	383.087
789.843	378.433
789.971	377.865
790.099	364.654
790.227	368.846
790.355	367.490
790.483	368.971
790.612	372.654
790.740	373.462
790.868	365.712
790.996	372.500
791.124	377.240
791.252	370.375
791.380	357.587
791.508	363.510
791.637	362.817
791.765	352.356
791.893	358.087
792.021	363.750
792.149	353.875
792.277	361.731
792.405	346.000
792.533	357.163
792.662	347.240
792.790	351.913
792.918	359.356
793.046	347.423
793.174	348.788
793.302	343.077
793.430	342.240
793.558	354.596
793.687	342.760
793.815	339.308
793.943	353.077
794.071	334.394
794.199	334.413
794.327	340.019
794.455	346.346
794.583	336.788
794.712	335.346
794.840	329.904
794.968	338.558
795.096	346.337
795.224	323.788
795.352	366.404
795.480	321.029
795.608	320.058
795.737	317.240
795.865	319.288
795.993	328.971
796.121	319.154
796.249	318.433
796.377	317.625
796.505	321.663
796.633	320.865
796.762	310.308
796.890	307.058
797.018	315.221
797.146	317.058
797.274	317.365
797.402	304.163
797.530	310.346
797.658	307.125
797.787	319.740
797.915	314.144
798.043	305.663
798.171	306.827
798.299	300.769
798.427	313.490
798.555	316.615
798.683	303.163
798.812	330.125
798.940	342.721
799.068	329.135
799.196	309.288
799.324	305.827
799.452	296.038
799.580	298.875
799.708	299.077
799.837	293.442
799.965	288.923
800.093	293.885
800.221	286.615
800.349	292.471
800.477	286.038
800.605	286.029
800.733	297.067
800.862	285.769
800.990	285.212
801.118	285.010
801.246	284.115
801.374	287.654
801.502	283.462
801.630	282.587
801.758	279.356
801.887	273.933
802.015	285.798
802.143	270.663
802.271	276.010
802.399	273.673
802.527	268.038
802.655	275.404
802.783	275.971
802.912	272.587
803.040	270.760
803.168	270.760
803.296	280.875
803.424	265.135
803.552	270.356
803.680	269.750
803.808	265.413
803.937	266.067
804.065	269.606
804.193	269.288
804.321	281.702
804.449	281.288
804.577	271.817
804.705	288.587
804.833	265.327
804.962	263.135
805.090	266.894
805.218	257.875
805.346	259.500
805.474	269.202
805.602	268.663
805.730	269.260
805.858	252.048
805.987	254.817
806.115	254.510
806.243	263.115
806.371	259.962
806.499	257.625
806.627	246.106
806.755	255.154
806.883	256.250
807.012	247.413
807.140	256.202
807.268	244.538
807.396	251.365
807.524	244.260
807.652	260.904
807.780	247.260
807.908	247.106
808.037	264.337
808.165	257.990
808.293	245.096
808.421	246.933
808.549	243.067
808.677	247.019
808.805	256.962
808.933	242.817
809.062	243.712
809.190	255.385
809.318	246.731
809.446	242.413
809.574	252.942
809.702	239.808
809.830	234.394
809.958	244.904
810.087	237.865
810.215	240.317
810.343	249.029
810.471	238.740
810.599	230.702
810.727	242.567
810.855	234.490
810.983	235.163
811.112	237.096
811.240	236.317
811.368	234.827
811.496	237.423
811.624	233.625
811.752	238.298
811.880	243.058
812.008	239.731
812.137	244.173
812.265	236.135
812.393	236.260
812.521	230.375
812.649	232.904
812.777	225.673
812.905	238.067
813.033	238.481
813.162	230.760
813.290	226.635
813.418	230.413
813.546	232.952
813.674	224.923
813.802	224.192
813.930	224.048
814.058	222.269
814.187	225.433
814.315	222.577
814.443	219.981
814.571	224.413
814.699	216.250
814.827	220.952
814.955	225.740
815.083	221.260
815.212	225.529
815.340	213.356
815.468	225.394
815.596	214.788
815.724	216.010
815.852	226.250
815.980	217.029
816.108	215.404
816.237	221.183
816.365	232.481
816.493	219.192
816.621	225.231
816.749	207.202
816.877	273.548
817.005	228.587
817.133	218.962
817.262	217.894
817.390	209.154
817.518	218.442
817.646	202.721
817.774	206.308
817.902	203.808
818.030	207.183
818.158	219.375
818.287	210.058
818.415	213.798
818.543	203.548
818.671	208.923
818.799	204.087
818.927	201.721
819.055	231.971
819.183	213.837
819.312	226.327
819.440	209.010
819.568	201.298
819.696	207.356
819.824	203.731
819.952	204.394
820.080	204.529
820.208	201.510
820.337	205.971
820.465	202.683
820.593	205.394
820.721	203.212
820.849	203.356
820.977	203.202
821.105	204.413
821.233	195.279
821.362	207.827
821.490	194.702
821.618	204.990
821.746	207.500
821.874	199.423
822.002	188.038
822.130	198.433
822.258	202.769
822.387	196.721
822.515	201.827
822.643	198.673
822.771	196.990
822.899	203.163
823.027	198.808
823.155	199.788
823.283	208.692
823.412	202.067
823.540	194.212
823.668	190.567
823.796	192.663
823.924	190.644
824.052	195.846
824.180	201.221
824.308	196.654
824.437	205.923
824.565	195.654
824.693	183.750
824.821	189.404
824.949	200.365
825.077	195.538
825.205	185.788
825.333	191.981
825.462	196.385
825.590	189.548
825.718	187.904
825.846	190.769
825.974	194.827
826.102	188.740
826.230	193.894
826.358	198.327
826.487	191.135
826.615	185.971
826.743	183.625
826.871	194.000
826.999	186.798
827.127	196.115
827.255	189.192
827.383	183.760
827.512	184.538
827.640	190.558
827.768	208.577
827.896	180.721
828.024	193.683
828.152	185.163
828.280	187.904
828.408	183.337
828.537	188.875
828.665	182.462
828.793	187.288
828.921	184.587
829.049	185.077
829.177	183.750
829.305	182.212
829.433	183.856
829.562	182.962
829.690	182.231
829.818	190.260
829.946	181.327
830.074	181.346
830.202	177.087
830.330	188.000
830.458	175.750
830.587	186.875
830.715	179.885
830.843	175.221
830.971	181.740
831.099	183.298
831.227	207.625
831.355	179.269
831.483	181.875
831.612	178.904
831.740	179.712
831.868	180.394
831.996	184.769
832.124	177.596
832.252	186.163
832.380	178.923
832.508	179.952
832.637	178.837
832.765	185.173
832.893	182.971
833.021	178.048
833.149	172.298
833.277	178.865
833.405	185.260
833.533	174.423
833.662	182.837
833.790	176.308
833.918	183.740
834.046	174.510
834.174	169.875
834.302	182.212
834.430	171.356
834.558	175.029
834.687	180.048
834.815	176.548
834.943	178.442
835.071	176.202
835.199	177.865
835.327	173.760
835.455	186.423
835.583	174.192
835.712	173.452
835.840	178.327
835.968	174.231
836.096	181.308
836.224	174.635
836.352	179.471
836.480	172.625
836.608	170.000
836.737	174.692
836.865	172.019
836.993	178.596
837.121	182.462
837.249	177.250
837.377	170.115
837.505	165.971
837.633	173.923
837.762	172.894
837.890	173.087
838.018	170.625
838.146	170.183
838.274	169.163
838.402	170.952
838.530	185.510
838.658	175.933
838.787	181.221
838.915	161.240
839.043	179.394
839.171	166.558
839.299	173.750
839.427	196.731
839.555	178.000
839.683	164.365
839.812	172.712
839.940	164.683
840.068	171.865
840.196	196.625
840.324	192.221
840.452	177.904
840.580	171.298
840.708	164.625
840.837	172.288
840.965	169.750
841.093	166.615
841.221	169.327
841.349	166.933
841.477	164.644
841.605	167.096
841.733	169.385
841.862	175.067
841.990	168.692
842.118	168.115
842.246	167.231
842.374	161.510
842.502	175.837
842.630	168.000
842.758	161.721
842.887	173.452
843.015	179.558
843.143	164.596
843.271	166.760
843.399	165.404
843.527	170.606
843.655	165.288
843.783	166.106
843.912	162.702
844.040	162.875
844.168	167.702
844.296	179.192
844.424	170.519
844.552	174.529
844.680	167.317
844.808	165.375
844.937	166.952
845.065	166.192
845.193	182.010
845.321	169.365
845.449	171.462
845.577	171.856
845.705	163.385
845.833	162.567
845.962	170.250
846.090	170.154
846.218	176.923
846.346	170.856
846.474	166.644
846.602	162.471
846.730	164.942
846.858	165.827
846.987	163.817
847.115	171.933
847.243	174.317
847.371	158.096
847.499	164.625
847.627	166.702
847.755	166.154
847.883	169.673
848.012	173.577
848.140	158.250
848.268	161.067
848.396	165.183
848.524	172.442
848.652	163.038
848.780	159.740
848.908	166.596
849.037	167.404
849.165	161.462
849.293	168.240
849.421	164.144
849.549	165.231
849.677	161.740
849.805	170.798
849.933	161.048
850.062	167.154
850.190	163.154
850.318	162.163
850.446	169.510
850.574	161.019
850.702	161.971
850.830	158.337
850.958	162.635
851.087	166.221
851.215	159.260
851.343	162.625
851.471	165.106
851.599	169.038
851.727	175.250
851.855	162.019
851.983	167.471
852.112	161.779
852.240	170.827
852.368	176.308
852.496	160.163
852.624	164.856
852.752	173.654
852.880	167.510
853.008	164.760
853.137	165.558
853.265	166.683
853.393	163.404
853.521	159.769
853.649	167.221
853.777	162.846
853.905	155.010
854.033	161.096
854.162	160.596
854.290	164.000
854.418	177.731
854.546	188.673
854.674	181.933
854.802	165.577
854.930	162.692
855.058	167.808
855.187	157.683
855.315	190.183
855.443	163.885
855.571	159.115
855.699	170.423
855.827	154.837
855.955	158.423
856.083	160.519
856.212	161.490
856.340	168.183
856.468	164.798
856.596	160.404
856.724	166.808
856.852	177.558
856.980	161.000
857.108	155.673
857.237	157.029
857.365	169.923
857.493	170.192
857.621	161.029
857.749	163.683
857.877	158.808
858.005	156.279
858.133	162.077
858.262	159.567
858.390	158.096
858.518	159.462
858.646	168.106
858.774	155.192
858.902	154.510
859.030	162.317
859.158	162.317
859.287	162.337
859.415	164.865
859.543	161.038
859.671	163.173
859.799	171.442
859.927	157.529
860.055	157.288
860.183	154.288
860.312	158.375
860.440	160.846
860.568	152.125
860.696	165.481
860.824	170.240
860.952	154.952
861.080	160.365
861.208	162.663
861.337	161.904
861.465	171.029
861.593	161.356
861.721	168.115
861.849	166.135
861.977	161.596
862.105	159.952
862.233	160.337
862.362	158.202
862.490	155.981
862.618	161.856
862.746	158.894
862.874	162.404
863.002	162.606
863.130	165.846
863.258	161.923
863.387	164.048
863.515	160.298
863.643	166.327
863.771	159.067
863.899	161.000
864.027	164.308
864.155	185.413
864.283	160.135
864.412	155.096
864.540	163.692
864.668	153.644
864.796	158.692
864.924	158.952
865.052	157.721
865.180	175.452
865.308	163.202
865.437	159.846
865.565	156.154
865.693	157.010
865.821	157.038
865.949	174.760
866.077	166.173
866.205	157.317
866.333	163.096
866.462	150.048
866.590	165.163
866.718	162.683
866.846	153.423
866.974	163.019
867.102	154.115
867.230	166.250
867.358	158.779
867.487	166.750
867.615	170.337
867.743	159.288
867.871	166.183
867.999	158.183
868.127	167.663
868.255	175.135
868.383	154.644
868.512	161.288
868.640	160.452
868.768	158.846
868.896	168.923
869.024	157.606
869.152	159.288
869.280	154.462
869.408	158.731
869.537	152.740
869.665	155.721
869.793	159.837
869.921	161.808
870.049	150.663
870.177	158.077
870.305	153.971
870.433	157.875
870.562	164.365
870.690	157.558
870.818	164.808
870.946	155.990
871.074	154.298
871.202	156.298
871.330	152.212
871.458	163.769
871.587	157.115
871.715	162.192
871.843	163.779
871.971	164.942
872.099	152.202
872.227	158.500
872.355	156.365
872.483	156.750
872.612	161.856
872.740	157.952
872.868	159.587
872.996	157.952
873.124	164.423
873.252	159.183
873.380	154.327
873.508	164.577
873.637	164.212
873.765	157.587
873.893	156.596
874.021	160.731
874.149	158.154
874.277	159.317
874.405	163.750
874.533	165.827
874.662	155.856
874.790	162.308
874.918	155.067
875.046	160.990
875.174	153.606
875.302	157.519
875.430	153.798
875.558	161.288
875.687	168.356
875.815	158.798
875.943	163.423
876.071	162.625
876.199	162.683
876.327	160.913
876.455	158.952
876.583	154.442
876.712	164.212
876.840	162.048
876.968	161.663
877.096	159.423
877.224	157.721
877.352	152.154
877.480	159.423
877.608	167.596
877.737	160.442
877.865	154.683
877.993	161.942
878.121	165.462
878.249	156.808
878.377	156.673
878.505	163.087
878.633	162.154
878.762	153.683
878.890	160.971
879.018	164.125
879.146	156.269
879.274	185.125
879.402	162.106
879.530	159.308
879.658	161.490
879.787	160.385
879.915	156.115
880.043	154.510
880.171	189.788
880.299	159.673
880.427	164.750
880.555	156.058
880.683	160.837
880.812	158.971
880.940	159.087
881.068	169.769
881.196	154.596
881.324	155.115
881.452	154.962
881.580	161.462
881.708	164.587
881.837	162.192
881.965	158.712
882.093	150.327
882.221	154.212
882.349	152.490
882.477	155.673
882.605	160.221
882.733	164.356
882.862	156.269
882.990	166.788
883.118	168.135
883.246	169.731
883.374	157.962
883.502	163.952
883.630	164.231
883.758	155.990
883.887	162.808
884.015	162.846
884.143	162.827
884.271	162.606
884.399	157.596
884.527	164.471
884.655	156.269
884.783	162.798
884.912	183.087
885.040	166.394
885.168	154.808
885.296	171.837
885.424	156.375
885.552	161.971
885.680	171.115
885.808	163.856
885.937	168.529
886.065	166.692
886.193	159.317
886.321	158.625
886.449	155.663
886.577	159.240
886.705	170.317
886.833	154.606
886.962	165.644
887.090	163.587
887.218	157.106
887.346	159.240
887.474	155.279
887.602	157.740
887.730	152.510
887.858	155.577
887.987	159.923
888.115	165.500
888.243	158.760
888.371	173.048
888.499	160.337
888.627	156.106
888.755	164.308
888.883	161.058
889.012	161.913
889.140	161.154
889.268	164.173
889.396	156.048
889.524	168.279
889.652	153.308
889.780	160.760
889.908	158.740
890.037	165.481
890.165	159.433
890.293	162.913
890.421	163.077
890.549	149.596
890.677	153.673
890.805	158.000
890.933	158.981
891.062	156.779
891.190	160.625
891.318	154.269
891.446	158.644
891.574	150.875
891.702	158.058
891.830	164.087
891.958	168.067
892.087	168.058
892.215	162.240
892.343	164.606
892.471	165.760
892.599	158.404
892.727	165.692
892.855	181.019
892.983	150.288
893.112	157.058
893.240	169.240
893.368	157.260
893.496	168.971
893.624	164.962
893.752	182.327
893.880	164.875
894.008	160.538
894.137	158.798
894.265	168.567
894.393	160.308
894.521	165.663
894.649	159.827
894.777	154.731
894.905	197.135
895.033	160.587
895.162	157.923
895.290	166.625
895.418	161.144
895.546	193.346
895.674	164.269
895.802	202.577
895.930	163.154
896.058	156.308
896.187	161.567
896.315	158.279
896.443	166.404
896.571	181.663
896.699	160.606
896.827	160.096
896.955	160.788
897.083	163.010
897.212	160.692
897.340	162.038
897.468	159.260
897.596	160.731
897.724	157.538
897.852	158.096
897.980	154.337
898.108	167.808
898.237	161.894
898.365	159.615
898.493	163.913
898.621	163.115
898.749	160.548
898.877	161.365
899.005	157.865
899.133	161.221
899.262	171.615
899.390	160.731
899.518	165.817
899.646	159.587
899.774	155.212
899.902	155.712
900.030	172.288
900.158	158.760
900.287	160.442
900.415	157.385
900.543	162.077
900.671	165.337
900.799	159.942
900.927	157.971
901.055	167.567
901.183	166.298
901.312	168.923
901.440	156.558
901.568	155.067
901.696	158.981
901.824	156.029
901.952	157.846
902.080	165.606
902.208	160.962
902.337	169.163
902.465	157.269
902.593	169.548
902.721	182.798
902.849	179.721
902.977	163.577
903.105	162.702
903.233	162.577
903.362	154.096
903.490	165.000
903.618	162.048
903.746	155.125
903.874	160.798
904.002	160.096
904.130	171.115
904.258	154.942
904.387	165.663
904.515	153.808
904.643	164.817
904.771	155.087
904.899	160.423
905.027	164.442
905.155	156.558
905.283	154.365
905.412	174.885
905.540	161.221
905.668	161.135
905.796	159.260
905.924	159.615
906.052	161.702
906.180	166.471
906.308	160.192
906.437	157.692
906.565	164.846
906.693	169.385
906.821	157.635
906.949	161.894
907.077	156.913
907.205	165.269
907.333	153.654
907.462	157.856
907.590	159.144
907.718	156.394
907.846	166.615
907.974	154.154
908.102	160.279
908.230	159.731
908.358	158.000
908.487	154.221
908.615	169.481
908.743	169.337
908.871	161.337
908.999	155.702
909.127	158.096
909.255	171.096
909.383	156.702
909.512	152.413
909.640	170.596
909.768	157.019
909.896	166.587
910.024	167.923
910.152	168.250
910.280	168.298
910.408	161.615
910.537	158.500
910.665	167.346
910.793	162.125
910.921	165.779
911.049	170.635
911.177	171.817
911.305	163.442
911.433	185.990
911.562	167.827
911.690	169.048
911.818	161.692
911.946	163.615
912.074	169.356
912.202	161.548
912.330	180.702
912.458	162.510
912.587	162.856
912.715	169.365
912.843	176.260
912.971	166.981
913.099	182.250
913.227	170.904
913.355	170.308
913.483	177.481
913.612	175.567
913.740	197.692
913.868	170.827
