90_110_wo_Pol_at_750.00nm_cut_at_1179.00Y_01.dat
03.07.2023
11:29:19
cut middle at Y: 1179.00
top cursor: 1231 down cursor: 1127 mean of: 104 lines , 2560 datapoints
wavelength(nm)	intensity[arb. units]
585.996	24518.500
586.124	24170.077
586.252	24137.635
586.380	24152.038
586.508	24274.837
586.637	24392.308
586.765	24455.673
586.893	24450.462
587.021	24507.942
587.149	24552.202
587.277	24619.106
587.405	24645.769
587.533	24797.192
587.662	24812.942
587.790	24749.500
587.918	24742.452
588.046	24685.096
588.174	24798.615
588.302	24837.298
588.430	24908.971
588.558	24845.644
588.687	24860.644
588.815	24907.981
588.943	24870.077
589.071	24910.548
589.199	24896.856
589.327	24891.567
589.455	24924.067
589.583	24900.413
589.712	24921.442
589.840	24869.558
589.968	24858.471
590.096	24914.337
590.224	24915.337
590.352	25031.904
590.480	24926.923
590.608	24903.173
590.737	24941.865
590.865	24908.952
590.993	24804.385
591.121	24862.385
591.249	24899.135
591.377	24946.279
591.505	24960.394
591.633	24893.183
591.762	24945.788
591.890	24969.385
592.018	25048.183
592.146	25037.221
592.274	25003.913
592.402	24985.442
592.530	25196.212
592.658	25121.279
592.787	25137.308
592.915	25177.750
593.043	25119.087
593.171	25219.981
593.299	25183.096
593.427	25178.596
593.555	25254.154
593.683	25284.817
593.812	25308.365
593.940	25392.519
594.068	25397.500
594.196	25424.990
594.324	25500.288
594.452	25674.519
594.580	25646.817
594.708	25687.010
594.837	25720.712
594.965	25840.423
595.093	25868.817
595.221	26017.760
595.349	25985.625
595.477	25958.462
595.605	26129.587
595.733	26117.952
595.862	26147.981
595.990	26092.125
596.118	26223.558
596.246	26321.510
596.374	26260.817
596.502	26352.413
596.630	26352.452
596.758	26329.346
596.887	26423.692
597.015	26452.221
597.143	26456.173
597.271	26430.769
597.399	26586.000
597.527	26530.942
597.655	26607.019
597.783	26623.587
597.912	26579.990
598.040	26619.327
598.168	26578.683
598.296	26526.240
598.424	26677.615
598.552	26523.529
598.680	26528.529
598.808	26655.490
598.937	26638.644
599.065	26601.981
599.193	26642.288
599.321	26636.327
599.449	26551.125
599.577	26554.298
599.705	26557.644
599.833	26471.183
599.962	26501.433
600.090	26525.462
600.218	26435.519
600.346	26521.144
600.474	26462.317
600.602	26472.529
600.730	26468.933
600.858	26549.442
600.987	26639.606
601.115	26511.596
601.243	26613.144
601.371	26645.125
601.499	26632.885
601.627	26670.577
601.755	26674.096
601.883	26715.048
602.012	26624.173
602.140	26671.885
602.268	26728.250
602.396	26890.433
602.524	26911.413
602.652	27045.875
602.780	26975.779
602.908	27064.712
603.037	27168.173
603.165	27199.923
603.293	27258.913
603.421	27286.923
603.549	27396.413
603.677	27505.865
603.805	27583.683
603.933	27629.269
604.062	27724.087
604.190	27820.038
604.318	27903.798
604.446	27913.827
604.574	27999.538
604.702	28041.462
604.830	28107.240
604.958	28159.317
605.087	28288.183
605.215	28412.837
605.343	28566.000
605.471	28585.981
605.599	28596.212
605.727	28735.510
605.855	28815.702
605.983	28920.904
606.112	28980.279
606.240	28932.865
606.368	29033.212
606.496	29004.375
606.624	29139.000
606.752	29117.000
606.880	29221.442
607.008	29245.019
607.137	29202.788
607.265	29358.490
607.393	29350.798
607.521	29383.442
607.649	29286.779
607.777	29376.500
607.905	29344.317
608.033	29369.385
608.162	29297.635
608.290	29329.231
608.418	29425.433
608.546	29425.760
608.674	29439.385
608.802	29328.481
608.930	29364.548
609.058	29340.913
609.187	29303.788
609.315	29291.606
609.443	29260.875
609.571	29423.942
609.699	29288.519
609.827	29272.510
609.955	29236.279
610.083	29196.596
610.212	29253.288
610.340	29102.894
610.468	29126.462
610.596	29150.250
610.724	29096.837
610.852	29203.942
610.980	29117.221
611.108	29132.221
611.237	29167.019
611.365	29129.481
611.493	29107.692
611.621	29117.750
611.749	29142.269
611.877	29194.846
612.005	29187.885
612.133	29206.615
612.262	29260.769
612.390	29323.615
612.518	29311.394
612.646	29328.904
612.774	29437.481
612.902	29385.250
613.030	29494.500
613.158	29442.423
613.287	29551.519
613.415	29538.356
613.543	29542.654
613.671	29607.250
613.799	29669.106
613.927	29710.452
614.055	29808.231
614.183	29818.087
614.312	29884.654
614.440	30016.000
614.568	30041.404
614.696	30071.875
614.824	30128.731
614.952	30198.577
615.080	30229.673
615.208	30368.788
615.337	30425.288
615.465	30424.298
615.593	30544.048
615.721	30499.606
615.849	30615.990
615.977	30632.683
616.105	30725.615
616.233	30743.702
616.362	30926.769
616.490	30910.788
616.618	31002.865
616.746	31065.048
616.874	31102.462
617.002	31196.212
617.130	31217.029
617.258	31227.654
617.387	31289.683
617.515	31305.442
617.643	31282.808
617.771	31391.471
617.899	31378.625
618.027	31398.279
618.155	31461.779
618.283	31481.779
618.412	31574.933
618.540	31660.375
618.668	31603.750
618.796	31646.577
618.924	31562.683
619.052	31676.875
619.180	31604.856
619.308	31566.692
619.437	31576.471
619.565	31619.913
619.693	31578.337
619.821	31696.529
619.949	31617.663
620.077	31645.817
620.205	31653.500
620.333	31610.885
620.462	31654.712
620.590	31703.846
620.718	31696.106
620.846	31683.750
620.974	31710.019
621.102	31710.644
621.230	31658.481
621.358	31737.721
621.487	31676.298
621.615	31693.029
621.743	31579.346
621.871	31634.192
621.999	31601.337
622.127	31615.317
622.255	31630.779
622.383	31549.000
622.512	31556.798
622.640	31511.567
622.768	31593.529
622.896	31611.721
623.024	31598.500
623.152	31567.096
623.280	31673.875
623.408	31617.240
623.537	31564.990
623.665	31550.923
623.793	31617.058
623.921	31585.298
624.049	31576.913
624.177	31555.673
624.305	31544.798
624.433	31519.885
624.562	31552.942
624.690	31640.327
624.818	31450.404
624.946	31418.654
625.074	31451.760
625.202	31432.183
625.330	31481.019
625.458	31613.817
625.587	31463.798
625.715	31541.740
625.843	31492.644
625.971	31564.202
626.099	31489.904
626.227	31578.788
626.355	31468.885
626.483	31544.827
626.612	31521.702
626.740	31613.827
626.868	31594.615
626.996	31641.721
627.124	31618.942
627.252	31523.000
627.380	31683.837
627.508	31593.125
627.637	31644.413
627.765	31683.548
627.893	31715.250
628.021	31775.644
628.149	31673.356
628.277	31825.106
628.405	31748.385
628.533	31782.077
628.662	31846.885
628.790	31883.635
628.918	31910.375
629.046	32047.577
629.174	31944.288
629.302	31997.596
629.430	31982.635
629.558	32080.808
629.687	32080.865
629.815	32191.260
629.943	32238.798
630.071	32297.779
630.199	32244.817
630.327	32342.865
630.455	32343.904
630.583	32368.029
630.712	32418.048
630.840	32394.702
630.968	32431.163
631.096	32522.712
631.224	32552.356
631.352	32706.683
631.480	32661.904
631.608	32791.798
631.737	32643.721
631.865	32743.827
631.993	32752.337
632.121	32931.481
632.249	32837.279
632.377	32802.692
632.505	32840.856
632.633	32958.798
632.762	32865.490
632.890	32875.856
633.018	32831.212
633.146	32847.058
633.274	32814.962
633.402	32903.471
633.530	32839.337
633.658	32833.260
633.787	32846.606
633.915	32771.846
634.043	32925.798
634.171	32967.048
634.299	32811.798
634.427	32864.865
634.555	33063.452
634.683	32840.067
634.812	32812.317
634.940	32757.433
635.068	32690.740
635.196	32707.538
635.324	32682.510
635.452	32646.510
635.580	32728.740
635.708	32630.846
635.837	32539.615
635.965	32458.231
636.093	32480.000
636.221	32407.173
636.349	32331.798
636.477	32343.433
636.605	32298.154
636.733	32264.596
636.862	32200.769
636.990	32148.779
637.118	32054.587
637.246	31989.529
637.374	32101.904
637.502	31881.644
637.630	31882.317
637.758	31848.471
637.887	31766.856
638.015	31817.279
638.143	31725.712
638.271	31609.183
638.399	31626.010
638.527	31563.462
638.655	31522.808
638.783	31435.279
638.912	31433.019
639.040	31329.904
639.168	31308.990
639.296	31288.529
639.424	31312.413
639.552	31258.712
639.680	31305.433
639.808	31205.231
639.937	31131.260
640.065	31144.683
640.193	31156.683
640.321	31243.279
640.449	31192.923
640.577	31142.327
640.705	31072.327
640.833	31068.067
640.962	31168.423
641.090	31057.894
641.218	31074.596
641.346	31142.510
641.474	31072.635
641.602	31054.327
641.730	31021.029
641.858	31068.990
641.987	31076.837
642.115	31193.519
642.243	31010.856
642.371	31203.000
642.499	31032.298
642.627	31079.760
642.755	31086.721
642.883	31043.635
643.012	31067.519
643.140	31078.288
643.268	31127.462
643.396	31004.356
643.524	31058.183
643.652	31180.375
643.780	31105.250
643.908	31057.510
644.037	31150.875
644.165	31176.913
644.293	31257.740
644.421	31080.635
644.549	31083.558
644.677	31068.192
644.805	31075.481
644.933	31012.923
645.062	31110.606
645.190	31222.346
645.318	31105.962
645.446	31053.587
645.574	31091.846
645.702	31099.981
645.830	31093.481
645.958	31035.519
646.087	31003.587
646.215	30986.962
646.343	31027.010
646.471	31161.048
646.599	31006.558
646.727	31020.529
646.855	30933.808
646.983	30948.067
647.112	30985.750
647.240	30929.269
647.368	30931.413
647.496	30897.885
647.624	30907.346
647.752	30851.721
647.880	30784.558
648.008	30829.356
648.137	30837.558
648.265	30789.904
648.393	30814.308
648.521	30735.260
648.649	30816.221
648.777	30699.173
648.905	30610.702
649.033	30597.587
649.162	30520.510
649.290	30433.125
649.418	30457.625
649.546	30582.471
649.674	30426.971
649.802	30365.163
649.930	30221.212
650.058	30249.356
650.187	30286.202
650.315	30202.500
650.443	30182.375
650.571	30010.260
650.699	30074.865
650.827	29947.192
650.955	29911.423
651.083	29916.510
651.212	29814.962
651.340	29788.529
651.468	29741.452
651.596	29680.788
651.724	29694.183
651.852	29638.135
651.980	29605.606
652.108	29527.288
652.237	29536.385
652.365	29390.615
652.493	29409.212
652.621	29379.260
652.749	29403.135
652.877	29289.481
653.005	29322.615
653.133	29246.019
653.262	29167.308
653.390	29107.644
653.518	29213.183
653.646	29050.644
653.774	29016.298
653.902	29052.731
654.030	29006.635
654.158	28904.635
654.287	28904.663
654.415	28863.721
654.543	28894.981
654.671	28820.192
654.799	28744.010
654.927	28675.481
655.055	28669.048
655.183	28622.442
655.312	28604.183
655.440	28560.692
655.568	28566.317
655.696	28515.010
655.824	28487.135
655.952	28489.365
656.080	28362.260
656.208	28359.423
656.337	28437.894
656.465	28526.846
656.593	28252.394
656.721	28284.529
656.849	28309.048
656.977	28082.529
657.105	28139.750
657.233	28134.327
657.362	28150.923
657.490	28107.837
657.618	28017.837
657.746	27997.567
657.874	27831.442
658.002	27781.288
658.130	27687.135
658.258	27699.596
658.387	27558.519
658.515	27591.269
658.643	27517.712
658.771	27541.654
658.899	27455.452
659.027	27386.038
659.155	27412.606
659.283	27318.913
659.412	27296.471
659.540	27276.365
659.668	27306.673
659.796	27314.183
659.924	27333.442
660.052	27389.913
660.180	27335.913
660.308	27376.288
660.437	27266.981
660.565	27184.183
660.693	27031.452
660.821	27112.192
660.949	26969.423
661.077	26958.192
661.205	27182.269
661.333	26938.462
661.462	26885.788
661.590	26974.962
661.718	26852.500
661.846	26849.183
661.974	26782.019
662.102	26748.490
662.230	26711.298
662.358	26567.404
662.487	26650.817
662.615	26554.010
662.743	26546.971
662.871	26537.865
662.999	26495.067
663.127	26439.933
663.255	26388.365
663.383	26500.808
663.512	26317.673
663.640	26281.750
663.768	26354.962
663.896	26207.538
664.024	26260.923
664.152	26268.913
664.280	26241.231
664.408	26110.933
664.537	26094.606
664.665	26131.760
664.793	26108.260
664.921	26074.144
665.049	26126.913
665.177	25994.481
665.305	26066.346
665.433	26008.404
665.562	26142.615
665.690	26006.904
665.818	26117.644
665.946	25918.308
666.074	25827.231
666.202	25868.365
666.330	25797.250
666.458	26060.692
666.587	25773.346
666.715	25736.029
666.843	25705.038
666.971	25692.087
667.099	25669.702
667.227	25699.692
667.355	25696.990
667.483	25606.798
667.612	25652.702
667.740	25637.048
667.868	25543.087
667.996	25507.048
668.124	25539.413
668.252	25599.712
668.380	25449.442
668.508	25516.394
668.637	25362.096
668.765	25378.635
668.893	25340.721
669.021	25292.510
669.149	25293.702
669.277	25177.490
669.405	25318.317
669.533	25259.529
669.662	25178.740
669.790	25132.202
669.918	25133.644
670.046	25221.923
670.174	24986.183
670.302	24968.404
670.430	24912.462
670.558	24953.279
670.687	25059.519
670.815	24841.231
670.943	24840.990
671.071	24755.000
671.199	24687.952
671.327	24670.577
671.455	24715.913
671.583	24575.269
671.712	24625.481
671.840	24624.635
671.968	24681.981
672.096	24551.933
672.224	24440.808
672.352	24333.173
672.480	24296.298
672.608	24306.923
672.737	24225.692
672.865	24141.202
672.993	24138.750
673.121	24101.356
673.249	24023.673
673.377	23994.067
673.505	23996.625
673.633	23974.885
673.762	23855.558
673.890	23899.731
674.018	23851.827
674.146	23746.019
674.274	23754.077
674.402	23735.067
674.530	23647.712
674.658	23551.279
674.787	23483.433
674.915	23613.529
675.043	23470.000
675.171	23370.952
675.299	23292.750
675.427	23262.923
675.555	23218.125
675.683	23191.500
675.812	23107.779
675.940	23073.779
676.068	22987.346
676.196	23025.721
676.324	22894.971
676.452	22837.058
676.580	22798.048
676.708	22752.288
676.837	22687.260
676.965	22727.327
677.093	22748.317
677.221	22585.788
677.349	22457.856
677.477	22502.144
677.605	22369.471
677.733	22429.596
677.862	22327.269
677.990	22307.462
678.118	22308.683
678.246	22229.471
678.374	22203.913
678.502	22076.442
678.630	22030.260
678.758	22044.269
678.887	22141.827
679.015	21913.817
679.143	21815.692
679.271	21830.712
679.399	21762.990
679.527	21756.644
679.655	21796.135
679.783	21654.288
679.912	21605.260
680.040	21759.798
680.168	21515.221
680.296	21532.654
680.424	21457.442
680.552	21368.481
680.680	21361.663
680.808	21322.077
680.937	21263.856
681.065	21321.317
681.193	21245.000
681.321	21178.740
681.449	21168.452
681.577	21126.692
681.705	21141.596
681.833	21101.029
681.962	21024.692
682.090	20984.067
682.218	20971.000
682.346	20944.644
682.474	20848.173
682.602	20895.885
682.730	20947.231
682.858	20813.471
682.987	20747.077
683.115	20787.577
683.243	20723.721
683.371	20728.769
683.499	20662.029
683.627	20683.837
683.755	20596.510
683.883	20593.731
684.012	20586.288
684.140	20515.452
684.268	20522.154
684.396	20547.240
684.524	20493.481
684.652	20472.577
684.780	20494.760
684.908	20463.981
685.037	20436.260
685.165	20331.077
685.293	20386.962
685.421	20340.913
685.549	20269.394
685.677	20280.106
685.805	20282.779
685.933	20212.721
686.062	20208.865
686.190	20110.385
686.318	20122.433
686.446	20077.644
686.574	20050.981
686.702	20026.058
686.830	19983.077
686.958	20007.192
687.087	19925.904
687.215	19944.308
687.343	19907.529
687.471	20021.115
687.599	19785.404
687.727	19788.663
687.855	19699.596
687.983	19676.673
688.112	19731.125
688.240	19679.740
688.368	19708.933
688.496	19606.250
688.624	19529.404
688.752	19685.433
688.880	19519.058
689.008	19427.154
689.137	19424.952
689.265	19398.452
689.393	19326.712
689.521	19351.048
689.649	19418.375
689.777	19290.971
689.905	19366.865
690.033	19157.567
690.162	19159.067
690.290	19185.779
690.418	19075.510
690.546	19088.067
690.674	19100.519
690.802	19046.029
690.930	19019.942
691.058	18959.038
691.187	18906.288
691.315	18878.317
691.443	18843.163
691.571	18807.125
691.699	18743.577
691.827	18705.067
691.955	18657.712
692.083	18647.125
692.212	18589.673
692.340	18577.077
692.468	18631.385
692.596	18546.865
692.724	18451.587
692.852	18483.846
692.980	18418.135
693.108	18450.048
693.237	18332.038
693.365	18278.125
693.493	18235.933
693.621	18197.827
693.749	18098.615
693.877	18152.490
694.005	18005.048
694.133	17978.423
694.262	18048.731
694.390	17915.077
694.518	17873.721
694.646	17876.288
694.774	17767.683
694.902	17690.788
695.030	17697.904
695.158	17685.375
695.287	17613.481
695.415	17586.135
695.543	17545.183
695.671	17447.913
695.799	17546.663
695.927	17393.779
696.055	17393.548
696.183	17268.817
696.312	17454.481
696.440	17254.048
696.568	17244.731
696.696	17103.673
696.824	17002.654
696.952	16997.327
697.080	17007.317
697.208	16950.452
697.337	16895.615
697.465	16868.971
697.593	16785.548
697.721	16877.625
697.849	16684.567
697.977	16707.433
698.105	16720.808
698.233	16615.038
698.362	16571.904
698.490	16629.260
698.618	16463.231
698.746	16448.644
698.874	16477.615
699.002	16395.875
699.130	16403.029
699.258	16336.673
699.387	16225.115
699.515	16268.365
699.643	16219.442
699.771	16257.990
699.899	16126.673
700.027	16040.788
700.155	16075.606
700.283	15915.058
700.412	15955.356
700.540	15925.433
700.668	15974.452
700.796	15786.769
700.924	15811.192
701.052	15772.308
701.180	15781.817
701.308	15637.846
701.437	15604.538
701.565	15601.154
701.693	15613.856
701.821	15701.587
701.949	15479.673
702.077	15445.462
702.205	15480.971
702.333	15337.250
702.462	15298.635
702.590	15333.990
702.718	15178.433
702.846	15354.673
702.974	15099.365
703.102	15131.817
703.230	15076.548
703.358	15024.327
703.487	14946.837
703.615	14947.538
703.743	14869.510
703.871	14839.654
703.999	14798.471
704.127	14714.673
704.255	14659.971
704.383	14707.846
704.512	14683.731
704.640	14608.077
704.768	14648.798
704.896	14465.875
705.024	14435.702
705.152	14406.183
705.280	14427.462
705.408	14287.875
705.537	14214.875
705.665	14196.615
705.793	14156.462
705.921	14084.865
706.049	14049.712
706.177	14049.029
706.305	13940.740
706.433	13988.606
706.562	13913.375
706.690	13863.404
706.818	13829.125
706.946	13769.192
707.074	13658.990
707.202	13639.279
707.330	13618.067
707.458	13561.615
707.587	13520.077
707.715	13535.048
707.843	13487.413
707.971	13460.683
708.099	13341.356
708.227	13312.673
708.355	13302.798
708.483	13240.750
708.612	13235.990
708.740	13123.587
708.868	13152.192
708.996	13161.923
709.124	13121.163
709.252	13025.721
709.380	13006.240
709.508	12948.413
709.637	12939.865
709.765	12876.952
709.893	12880.981
710.021	12820.221
710.149	12861.933
710.277	12731.260
710.405	12722.567
710.533	12642.779
710.662	12628.298
710.790	12739.221
710.918	12531.067
711.046	12577.462
711.174	12505.904
711.302	12522.490
711.430	12448.029
711.558	12436.087
711.687	12373.452
711.815	12289.654
711.943	12276.000
712.071	12243.385
712.199	12260.721
712.327	12313.663
712.455	12165.962
712.583	12325.413
712.712	12152.212
712.840	12152.163
712.968	12039.240
713.096	11976.615
713.224	11975.096
713.352	11940.317
713.480	11904.192
713.608	11847.163
713.737	11811.644
713.865	11883.394
713.993	11797.663
714.121	11789.231
714.249	11705.327
714.377	11656.404
714.505	11617.798
714.633	11633.644
714.762	11567.692
714.890	11523.798
715.018	11519.702
715.146	11550.481
715.274	11433.923
715.402	11420.317
715.530	11381.740
715.658	11439.865
715.787	11355.192
715.915	11409.048
716.043	11299.413
716.171	11384.894
716.299	11162.125
716.427	11283.202
716.555	11135.356
716.683	11129.106
716.812	11146.750
716.940	11084.577
717.068	10986.317
717.196	11174.702
717.324	11011.404
717.452	10978.000
717.580	10973.010
717.708	10872.712
717.837	10862.500
717.965	10882.827
718.093	10790.827
718.221	10784.808
718.349	10814.481
718.477	10715.317
718.605	10784.923
718.733	10674.250
718.862	10677.712
718.990	10568.173
719.118	10635.529
719.246	10533.260
719.374	10496.038
719.502	10527.635
719.630	10554.317
719.758	10390.308
719.887	10359.875
720.015	10376.673
720.143	10380.337
720.271	10252.154
720.399	10308.788
720.527	10229.298
720.655	10273.923
720.783	10169.067
720.912	10098.308
721.040	10118.096
721.168	10080.192
721.296	9963.981
721.424	10030.808
721.552	9943.173
721.680	9973.740
721.808	9912.673
721.937	9864.038
722.065	9896.125
722.193	9806.163
722.321	9801.240
722.449	9773.913
722.577	9695.135
722.705	9659.692
722.833	9659.019
722.962	9643.962
723.090	9554.096
723.218	9554.240
723.346	9580.885
723.474	9487.077
723.602	9419.923
723.730	9384.212
723.858	9355.298
723.987	9347.644
724.115	9306.673
724.243	9298.779
724.371	9263.644
724.499	9218.971
724.627	9181.692
724.755	9149.837
724.883	9219.798
725.012	9261.625
725.140	9066.712
725.268	8972.106
725.396	9053.279
725.524	9088.644
725.652	8918.173
725.780	9017.558
725.908	8846.087
726.037	8839.942
726.165	8826.837
726.293	8730.644
726.421	8752.750
726.549	8764.471
726.677	8700.327
726.805	8588.827
726.933	8634.837
727.062	8573.837
727.190	8525.788
727.318	8494.308
727.446	8455.433
727.574	8413.654
727.702	8411.260
727.830	8440.144
727.958	8366.933
728.087	8415.683
728.215	8421.990
728.343	8272.596
728.471	8281.692
728.599	8361.462
728.727	8178.654
728.855	8160.808
728.983	8123.962
729.112	8112.933
729.240	8103.212
729.368	8033.240
729.496	8059.375
729.624	7999.346
729.752	7933.298
729.880	7952.798
730.008	7898.923
730.137	7902.635
730.265	7860.952
730.393	8018.981
730.521	7931.231
730.649	7741.702
730.777	7671.260
730.905	7720.635
731.033	7656.413
731.162	7767.087
731.290	7712.971
731.418	7618.933
731.546	7587.115
731.674	7555.788
731.802	7521.702
731.930	7594.702
732.058	7619.077
732.187	7483.548
732.315	7473.846
732.443	7551.779
732.571	7445.115
732.699	7389.327
732.827	7401.548
732.955	7338.077
733.083	7292.490
733.212	7330.433
733.340	7241.173
733.468	7234.058
733.596	7239.096
733.724	7214.231
733.852	7209.298
733.980	7176.471
734.108	7328.385
734.237	7147.538
734.365	7125.317
734.493	7083.058
734.621	7062.173
734.749	7038.788
734.877	7059.452
735.005	7015.413
735.133	6963.442
735.262	7046.423
735.390	6932.308
735.518	6883.221
735.646	6980.567
735.774	6933.038
735.902	6929.942
736.030	6817.413
736.158	6805.894
736.287	6854.010
736.415	6806.058
736.543	6771.019
736.671	6754.894
736.799	6748.587
736.927	6703.615
737.055	6792.413
737.183	6662.010
737.312	6615.212
737.440	6605.798
737.568	6681.923
737.696	6655.779
737.824	6552.837
737.952	6805.962
738.080	6532.221
738.208	6549.010
738.337	6502.490
738.465	6513.221
738.593	6438.942
738.721	6436.394
738.849	6492.385
738.977	6421.635
739.105	6382.010
739.233	6357.067
739.362	6318.606
739.490	6294.885
739.618	6326.913
739.746	6288.837
739.874	6243.404
740.002	6253.433
740.130	6222.942
740.258	6174.731
740.387	6235.808
740.515	6158.538
740.643	6144.115
740.771	6184.317
740.899	6092.038
741.027	6042.779
741.155	6040.538
741.283	5994.394
741.412	6099.875
741.540	6010.567
741.668	5986.067
741.796	6049.288
741.924	5908.798
742.052	6046.990
742.180	5905.096
742.308	5823.029
742.437	5871.260
742.565	5815.125
742.693	5921.250
742.821	5768.913
742.949	5744.038
743.077	5770.385
743.205	5684.269
743.333	5713.106
743.462	5690.221
743.590	5641.913
743.718	5658.952
743.846	5613.260
743.974	5636.808
744.102	5561.798
744.230	5554.500
744.358	5524.135
744.487	5502.615
744.615	5465.798
744.743	5429.933
744.871	5433.702
744.999	5464.663
745.127	5397.971
745.255	5335.663
745.383	5355.452
745.512	5332.750
745.640	5303.644
745.768	5300.173
745.896	5342.644
746.024	5272.240
746.152	5204.673
746.280	5239.798
746.408	5200.538
746.537	5232.087
746.665	5173.240
746.793	5145.038
746.921	5111.269
747.049	5125.317
747.177	5060.298
747.305	5215.769
747.433	5042.288
747.562	5000.894
747.690	5009.144
747.818	5057.058
747.946	4946.692
748.074	4943.096
748.202	4937.375
748.330	4904.385
748.458	4864.567
748.587	4827.933
748.715	4903.683
748.843	4803.471
748.971	4796.875
749.099	4807.933
749.227	4772.750
749.355	4784.558
749.483	4690.490
749.612	4769.587
749.740	4698.212
749.868	4676.115
749.996	4709.538
750.124	4690.087
750.252	4632.673
750.380	4620.202
750.508	4579.990
750.637	4542.885
750.765	4680.048
750.893	4510.635
751.021	4470.644
751.149	4495.327
751.277	4485.029
751.405	4439.769
751.533	4420.221
751.662	4364.933
751.790	4513.538
751.918	4354.567
752.046	4331.865
752.174	4342.058
752.302	4298.952
752.430	4272.962
752.558	4274.327
752.687	4229.875
752.815	4271.538
752.943	4228.250
753.071	4190.433
753.199	4163.471
753.327	4195.308
753.455	4084.548
753.583	4187.904
753.712	4127.413
753.840	4120.663
753.968	4073.731
754.096	4057.000
754.224	4024.413
754.352	4045.058
754.480	4023.875
754.608	4000.529
754.737	3971.356
754.865	3934.952
754.993	3994.115
755.121	3979.779
755.249	4000.029
755.377	3811.231
755.505	3895.260
755.633	3924.404
755.762	3781.837
755.890	3808.356
756.018	3733.510
756.146	3744.010
756.274	3759.510
756.402	3708.471
756.530	3673.183
756.658	3680.423
756.787	3642.904
756.915	3603.577
757.043	3597.894
757.171	3584.221
757.299	3683.337
757.427	3541.500
757.555	3580.769
757.683	3501.433
757.812	3527.163
757.940	3466.558
758.068	3434.808
758.196	3423.827
758.324	3474.875
758.452	3411.673
758.580	3377.894
758.708	3343.452
758.837	3438.481
758.965	3342.663
759.093	3356.087
759.221	3311.067
759.349	3263.433
759.477	3309.298
759.605	3300.962
759.733	3276.038
759.862	3171.365
759.990	3162.115
760.118	3191.990
760.246	3284.788
760.374	3135.192
760.502	3132.817
760.630	3171.298
760.758	3101.010
760.887	3100.769
761.015	3040.827
761.143	3049.269
761.271	3073.846
761.399	3005.808
761.527	3029.837
761.655	2975.404
761.783	2918.173
761.912	2939.385
762.040	3002.087
762.168	2870.404
762.296	3002.442
762.424	2925.856
762.552	2971.173
762.680	2839.115
762.808	2894.490
762.937	2795.606
763.065	2803.894
763.193	2762.808
763.321	2790.346
763.449	2749.721
763.577	2731.010
763.705	2872.500
763.833	2732.067
763.962	2680.125
764.090	2663.952
764.218	2637.519
764.346	2700.279
764.474	2704.490
764.602	2584.529
764.730	2560.481
764.858	2569.029
764.987	2571.587
765.115	2534.250
765.243	2506.183
765.371	2534.654
765.499	2557.683
765.627	2465.865
765.755	2446.625
765.883	2454.510
766.012	2460.962
766.140	2441.308
766.268	2422.875
766.396	2411.212
766.524	2402.202
766.652	2386.240
766.780	2445.548
766.908	2383.144
767.037	2427.298
767.165	2368.817
767.293	2367.106
767.421	2381.827
767.549	2340.500
767.677	2360.462
767.805	2328.442
767.933	2323.808
768.062	2304.635
768.190	2313.702
768.318	2335.827
768.446	2293.875
768.574	2278.413
768.702	2294.962
768.830	2275.558
768.958	2235.250
769.087	2291.019
769.215	2230.981
769.343	2244.615
769.471	2261.404
769.599	2235.769
769.727	2222.500
769.855	2183.462
769.983	2218.990
770.112	2168.548
770.240	2167.490
770.368	2147.885
770.496	2144.740
770.624	2159.413
770.752	2130.529
770.880	2140.692
771.008	2099.712
771.137	2121.683
771.265	2102.317
771.393	2073.837
771.521	2085.827
771.649	2085.510
771.777	2093.673
771.905	2096.019
772.033	2080.048
772.162	2038.212
772.290	2042.298
772.418	2030.423
772.546	2011.615
772.674	1999.394
772.802	1984.135
772.930	1991.875
773.058	1978.173
773.187	1961.077
773.315	1957.163
773.443	1954.788
773.571	1943.144
773.699	1944.894
773.827	1940.317
773.955	1947.721
774.083	1931.404
774.212	1898.288
774.340	1894.529
774.468	1881.644
774.596	1874.779
774.724	1880.163
774.852	1880.740
774.980	1853.404
775.108	1857.183
775.237	1833.327
775.365	1828.856
775.493	1814.173
775.621	1816.673
775.749	1809.375
775.877	1817.288
776.005	1810.413
776.133	1800.029
776.262	1777.106
776.390	1780.250
776.518	1752.827
776.646	1764.010
776.774	1752.279
776.902	1730.481
777.030	1724.433
777.158	1715.298
777.287	1727.625
777.415	1704.212
777.543	1700.952
777.671	1703.423
777.799	1689.125
777.927	1691.865
778.055	1676.615
778.183	1672.750
778.312	1667.615
778.440	1645.827
778.568	1668.808
778.696	1653.548
778.824	1653.019
778.952	1632.865
779.080	1616.106
779.208	1613.577
779.337	1609.058
779.465	1598.394
779.593	1590.462
779.721	1582.837
779.849	1575.971
779.977	1583.731
780.105	1549.721
780.233	1564.596
780.362	1552.442
780.490	1535.490
780.618	1537.442
780.746	1527.212
780.874	1528.346
781.002	1517.615
781.130	1503.692
781.258	1479.279
781.387	1495.519
781.515	1491.087
781.643	1464.135
781.771	1473.375
781.899	1487.260
782.027	1450.663
782.155	1445.058
782.283	1441.000
782.412	1444.010
782.540	1438.817
782.668	1433.827
782.796	1423.404
782.924	1415.394
783.052	1417.433
783.180	1396.144
783.308	1402.923
783.437	1384.779
783.565	1387.433
783.693	1384.029
783.821	1366.462
783.949	1374.375
784.077	1368.029
784.205	1358.942
784.333	1343.471
784.462	1344.317
784.590	1335.442
784.718	1323.548
784.846	1331.538
784.974	1323.750
785.102	1315.962
785.230	1317.192
785.358	1295.308
785.487	1283.192
785.615	1273.125
785.743	1277.558
785.871	1284.856
785.999	1270.260
786.127	1274.481
786.255	1246.731
786.383	1260.087
786.512	1250.067
786.640	1238.337
786.768	1226.096
786.896	1233.760
787.024	1213.183
787.152	1212.317
787.280	1217.962
787.408	1208.913
787.537	1214.615
787.665	1199.981
787.793	1191.452
787.921	1185.106
788.049	1174.423
788.177	1170.837
788.305	1181.471
788.433	1168.788
788.562	1153.615
788.690	1150.087
788.818	1153.731
788.946	1143.885
789.074	1137.808
789.202	1127.548
789.330	1116.375
789.458	1126.337
789.587	1112.923
789.715	1125.798
789.843	1107.375
789.971	1098.740
790.099	1093.683
790.227	1078.856
790.355	1082.683
790.483	1084.846
790.612	1073.548
790.740	1074.356
790.868	1062.077
790.996	1073.096
791.124	1073.442
791.252	1069.279
791.380	1049.154
791.508	1052.740
791.637	1052.702
791.765	1024.260
791.893	1028.346
792.021	1025.990
792.149	1008.865
792.277	1016.712
792.405	997.587
792.533	1000.452
792.662	994.913
792.790	995.413
792.918	1002.154
793.046	982.779
793.174	987.567
793.302	970.846
793.430	971.356
793.558	976.231
793.687	959.481
793.815	956.788
793.943	974.173
794.071	944.115
794.199	939.327
794.327	943.779
794.455	946.837
794.583	937.260
794.712	923.856
794.840	924.913
794.968	918.644
795.096	919.519
795.224	893.558
795.352	946.183
795.480	893.865
795.608	897.529
795.737	880.279
795.865	881.837
795.993	883.490
796.121	874.202
796.249	861.010
796.377	866.808
796.505	860.510
796.633	862.500
796.762	849.115
796.890	848.115
797.018	845.202
797.146	852.173
797.274	838.029
797.402	833.404
797.530	822.885
797.658	822.740
797.787	836.442
797.915	819.019
798.043	803.606
798.171	817.375
798.299	797.106
798.427	802.183
798.555	810.029
798.683	786.769
798.812	817.192
798.940	824.952
799.068	815.260
799.196	787.337
799.324	777.135
799.452	759.837
799.580	763.269
799.708	761.240
799.837	754.875
799.965	751.817
800.093	749.288
800.221	736.135
800.349	737.279
800.477	732.288
800.605	726.000
800.733	730.856
800.862	729.798
800.990	717.404
801.118	720.010
801.246	717.971
801.374	713.452
801.502	704.365
801.630	706.663
801.758	701.163
801.887	687.865
802.015	692.625
802.143	677.317
802.271	687.760
802.399	671.654
802.527	668.817
802.655	671.779
802.783	662.913
802.912	665.721
803.040	663.894
803.168	648.500
803.296	665.144
803.424	652.212
803.552	656.952
803.680	659.058
803.808	648.327
803.937	645.279
804.065	642.144
804.193	642.519
804.321	649.500
804.449	643.625
804.577	635.260
804.705	647.683
804.833	626.962
804.962	619.596
805.090	620.250
805.218	609.288
805.346	609.962
805.474	624.760
805.602	617.962
805.730	611.019
805.858	593.615
805.987	589.519
806.115	595.433
806.243	601.385
806.371	590.212
806.499	598.183
806.627	580.115
806.755	584.663
806.883	582.510
807.012	574.279
807.140	581.606
807.268	570.721
807.396	569.529
807.524	568.740
807.652	569.712
807.780	561.942
807.908	558.769
808.037	572.029
808.165	561.375
808.293	551.952
808.421	549.837
808.549	543.356
808.677	539.846
808.805	560.856
808.933	536.317
809.062	534.865
809.190	548.673
809.318	534.673
809.446	534.115
809.574	535.606
809.702	523.683
809.830	516.471
809.958	531.356
810.087	523.356
810.215	519.740
810.343	526.192
810.471	515.635
810.599	515.240
810.727	515.462
810.855	499.913
810.983	509.048
811.112	509.942
811.240	505.481
811.368	504.990
811.496	509.529
811.624	498.692
811.752	497.827
811.880	511.202
812.008	494.067
812.137	509.500
812.265	482.067
812.393	487.394
812.521	478.019
812.649	485.731
812.777	476.250
812.905	486.702
813.033	482.644
813.162	470.788
813.290	463.423
813.418	471.500
813.546	469.346
813.674	464.615
813.802	460.471
813.930	463.183
814.058	458.375
814.187	456.606
814.315	456.577
814.443	448.231
814.571	451.798
814.699	439.971
814.827	451.538
814.955	451.567
815.083	441.712
815.212	440.240
815.340	435.673
815.468	445.337
815.596	433.192
815.724	436.221
815.852	441.971
815.980	428.779
816.108	433.865
816.237	429.356
816.365	439.250
816.493	426.885
816.621	436.692
816.749	415.692
816.877	485.587
817.005	434.250
817.133	424.365
817.262	418.413
817.390	407.038
817.518	420.731
817.646	409.077
817.774	407.452
817.902	399.635
818.030	402.596
818.158	410.135
818.287	402.587
818.415	396.096
818.543	397.625
818.671	403.673
818.799	395.885
818.927	394.779
819.055	418.462
819.183	396.106
819.312	411.452
819.440	393.163
819.568	385.683
819.696	389.308
819.824	387.000
819.952	382.846
820.080	383.413
820.208	379.221
820.337	388.154
820.465	379.567
820.593	379.067
820.721	382.577
820.849	371.038
820.977	372.067
821.105	369.625
821.233	367.077
821.362	374.058
821.490	364.192
821.618	376.183
821.746	375.144
821.874	363.433
822.002	355.087
822.130	362.202
822.258	363.173
822.387	360.115
822.515	361.788
822.643	356.067
822.771	352.625
822.899	360.750
823.027	349.904
823.155	351.115
823.283	361.606
823.412	359.048
823.540	343.837
823.668	340.606
823.796	347.087
823.924	342.769
824.052	345.538
824.180	346.202
824.308	341.673
824.437	352.250
824.565	343.798
824.693	328.942
824.821	327.904
824.949	342.250
825.077	340.010
825.205	327.038
825.333	332.279
825.462	338.856
825.590	328.452
825.718	323.010
825.846	328.538
825.974	325.654
826.102	327.260
826.230	328.673
826.358	328.962
826.487	327.077
826.615	320.279
826.743	312.317
826.871	325.106
826.999	315.875
827.127	323.971
827.255	322.346
827.383	311.433
827.512	315.846
827.640	319.769
827.768	337.298
827.896	310.673
828.024	316.712
828.152	307.481
828.280	314.375
828.408	306.038
828.537	310.577
828.665	306.452
828.793	310.462
828.921	302.067
829.049	309.317
829.177	305.442
829.305	299.481
829.433	301.442
829.562	301.615
829.690	305.538
829.818	305.192
829.946	300.923
830.074	299.048
830.202	296.817
830.330	299.183
830.458	288.221
830.587	302.231
830.715	289.548
830.843	286.308
830.971	294.000
831.099	299.058
831.227	321.010
831.355	284.250
831.483	289.942
831.612	288.433
831.740	290.548
831.868	287.154
831.996	292.788
832.124	284.163
832.252	295.558
832.380	283.183
832.508	286.154
832.637	286.529
832.765	288.048
832.893	282.433
833.021	279.231
833.149	275.692
833.277	280.365
833.405	288.413
833.533	277.433
833.662	283.231
833.790	275.308
833.918	280.865
834.046	275.615
834.174	272.788
834.302	278.385
834.430	267.538
834.558	274.240
834.687	278.010
834.815	273.356
834.943	271.077
835.071	273.875
835.199	275.500
835.327	268.760
835.455	280.587
835.583	267.308
835.712	264.375
835.840	270.875
835.968	266.442
836.096	276.538
836.224	261.894
836.352	271.087
836.480	266.000
836.608	262.192
836.737	270.106
836.865	258.654
836.993	269.125
837.121	274.788
837.249	268.990
837.377	256.827
837.505	253.375
837.633	261.135
837.762	258.519
837.890	263.404
838.018	258.577
838.146	258.202
838.274	256.058
838.402	258.596
838.530	266.769
838.658	257.538
838.787	264.317
838.915	251.750
839.043	263.885
839.171	252.596
839.299	258.702
839.427	271.856
839.555	255.962
839.683	247.769
839.812	253.173
839.940	248.663
840.068	250.087
840.196	275.885
840.324	268.731
840.452	253.625
840.580	248.904
840.708	239.788
840.837	252.654
840.965	246.510
841.093	242.413
841.221	245.500
841.349	244.567
841.477	238.625
841.605	245.212
841.733	238.577
841.862	253.462
841.990	244.808
842.118	240.173
842.246	240.288
842.374	236.606
842.502	249.577
842.630	243.933
842.758	235.885
842.887	247.125
843.015	255.817
843.143	236.692
843.271	237.365
843.399	239.500
843.527	239.615
843.655	232.702
843.783	234.606
843.912	231.019
844.040	232.317
844.168	236.885
844.296	247.692
844.424	241.010
844.552	241.721
844.680	236.817
844.808	234.615
844.937	238.846
845.065	229.692
845.193	246.817
845.321	233.971
845.449	245.038
845.577	234.990
845.705	225.510
845.833	230.240
845.962	242.981
846.090	234.365
846.218	242.548
846.346	235.519
846.474	232.558
846.602	226.808
846.730	235.240
846.858	227.683
846.987	224.962
847.115	233.798
847.243	241.250
847.371	225.394
847.499	226.962
847.627	227.673
847.755	225.317
847.883	232.183
848.012	232.192
848.140	219.135
848.268	222.962
848.396	226.067
848.524	233.500
848.652	223.519
848.780	221.779
848.908	229.529
849.037	224.923
849.165	220.981
849.293	228.808
849.421	222.760
849.549	225.125
849.677	221.942
849.805	231.923
849.933	218.808
850.062	227.510
850.190	220.596
850.318	221.846
850.446	224.702
850.574	222.663
850.702	220.337
850.830	215.519
850.958	220.654
851.087	226.087
851.215	217.673
851.343	215.904
851.471	223.404
851.599	224.317
851.727	232.740
851.855	222.702
851.983	225.702
852.112	217.952
852.240	224.135
852.368	228.798
852.496	216.548
852.624	219.587
852.752	225.154
852.880	219.240
853.008	217.260
853.137	216.077
853.265	223.923
853.393	213.067
853.521	212.856
853.649	223.135
853.777	213.404
853.905	208.663
854.033	209.510
854.162	210.567
854.290	212.635
854.418	230.702
854.546	240.231
854.674	233.096
854.802	213.135
854.930	205.433
855.058	220.135
855.187	212.231
855.315	239.413
855.443	210.923
855.571	208.510
855.699	219.923
855.827	207.221
855.955	205.990
856.083	210.317
856.212	213.712
856.340	213.817
856.468	213.837
856.596	214.596
856.724	215.288
856.852	225.760
856.980	208.548
857.108	204.404
857.237	199.490
857.365	216.788
857.493	215.298
857.621	213.260
857.749	205.615
857.877	206.490
858.005	202.010
858.133	210.654
858.262	204.471
858.390	208.269
858.518	203.548
858.646	213.567
858.774	202.048
858.902	203.250
859.030	211.442
859.158	208.837
859.287	206.308
859.415	208.942
859.543	205.375
859.671	208.894
859.799	214.240
859.927	202.635
860.055	199.904
860.183	199.933
860.312	204.837
860.440	202.615
860.568	196.663
860.696	209.827
860.824	213.115
860.952	196.221
861.080	204.981
861.208	207.654
861.337	202.885
861.465	210.981
861.593	205.788
861.721	210.990
861.849	207.894
861.977	197.779
862.105	204.433
862.233	197.702
862.362	201.423
862.490	200.558
862.618	203.404
862.746	198.192
862.874	206.885
863.002	203.894
863.130	209.856
863.258	204.654
863.387	207.837
863.515	200.933
863.643	208.971
863.771	202.750
863.899	201.817
864.027	201.779
864.155	228.423
864.283	197.288
864.412	197.490
864.540	201.846
864.668	196.192
864.796	201.125
864.924	197.721
865.052	195.452
865.180	213.683
865.308	201.567
865.437	200.269
865.565	194.038
865.693	197.510
865.821	197.269
865.949	215.394
866.077	203.106
866.205	197.817
866.333	201.808
866.462	191.567
866.590	204.048
866.718	200.029
866.846	192.212
866.974	200.942
867.102	195.038
867.230	202.385
867.358	198.625
867.487	205.760
867.615	208.010
867.743	197.058
867.871	209.346
867.999	196.154
868.127	209.010
868.255	213.471
868.383	187.990
868.512	198.683
868.640	196.154
868.768	197.183
868.896	206.779
869.024	196.577
869.152	196.837
869.280	191.279
869.408	191.923
869.537	190.010
869.665	193.115
869.793	194.346
869.921	195.423
870.049	189.269
870.177	199.327
870.305	193.144
870.433	191.846
870.562	200.038
870.690	193.837
870.818	204.981
870.946	189.327
871.074	190.385
871.202	192.212
871.330	191.654
871.458	198.663
871.587	195.077
871.715	195.356
871.843	196.827
871.971	199.058
872.099	188.413
872.227	189.827
872.355	192.663
872.483	189.856
872.612	195.000
872.740	193.404
872.868	192.865
872.996	198.202
873.124	203.144
873.252	192.260
873.380	188.760
873.508	203.827
873.637	200.692
873.765	187.500
873.893	189.798
874.021	192.875
874.149	189.702
874.277	193.346
874.405	200.058
874.533	200.144
874.662	190.404
874.790	198.144
874.918	188.490
875.046	194.481
875.174	189.625
875.302	184.308
875.430	191.010
875.558	193.904
875.687	200.721
875.815	192.673
875.943	196.808
876.071	193.375
876.199	195.519
876.327	191.240
876.455	192.500
876.583	187.817
876.712	198.038
876.840	194.471
876.968	194.394
877.096	193.894
877.224	191.135
877.352	185.683
877.480	190.615
877.608	203.163
877.737	200.173
877.865	190.606
877.993	193.587
878.121	196.625
878.249	189.865
878.377	190.269
878.505	194.788
878.633	193.019
878.762	187.462
878.890	190.769
879.018	197.096
879.146	189.587
879.274	215.413
879.402	194.115
879.530	188.615
879.658	193.125
879.787	193.481
879.915	187.923
880.043	187.519
880.171	222.212
880.299	194.894
880.427	196.183
880.555	186.673
880.683	196.308
880.812	191.202
880.940	190.413
881.068	200.490
881.196	187.048
881.324	186.077
881.452	186.856
881.580	196.067
881.708	198.798
881.837	192.673
881.965	196.029
882.093	185.077
882.221	187.385
882.349	185.115
882.477	188.904
882.605	191.558
882.733	197.865
882.862	185.029
882.990	202.721
883.118	197.587
883.246	199.250
883.374	190.298
883.502	196.712
883.630	195.760
883.758	190.298
883.887	197.260
884.015	194.356
884.143	195.577
884.271	193.404
884.399	184.038
884.527	195.183
884.655	189.096
884.783	192.567
884.912	216.067
885.040	196.462
885.168	183.038
885.296	200.337
885.424	185.183
885.552	191.683
885.680	206.490
885.808	195.683
885.937	201.029
886.065	197.798
886.193	188.596
886.321	190.048
886.449	187.635
886.577	187.337
886.705	197.298
886.833	182.356
886.962	193.635
887.090	193.260
887.218	188.923
887.346	187.798
887.474	188.125
887.602	189.240
887.730	182.077
887.858	186.087
887.987	187.038
888.115	191.038
888.243	189.423
888.371	204.606
888.499	189.346
888.627	186.712
888.755	195.144
888.883	190.856
889.012	194.500
889.140	187.240
889.268	192.298
889.396	181.048
889.524	198.462
889.652	183.808
889.780	188.596
889.908	185.779
890.037	198.712
890.165	186.462
890.293	193.971
890.421	191.462
890.549	181.462
890.677	183.933
890.805	190.827
890.933	185.000
891.062	188.279
891.190	190.298
891.318	181.779
891.446	186.288
891.574	180.317
891.702	185.019
891.830	191.510
891.958	196.327
892.087	190.577
892.215	192.288
892.343	191.404
892.471	194.856
892.599	185.231
892.727	188.625
892.855	205.548
892.983	178.731
893.112	187.577
893.240	193.654
893.368	185.692
893.496	198.019
893.624	191.587
893.752	209.067
893.880	191.288
894.008	190.904
894.137	184.087
894.265	194.202
894.393	189.067
894.521	192.644
894.649	187.221
894.777	178.933
894.905	223.423
895.033	188.413
895.162	186.673
895.290	195.269
895.418	188.635
895.546	219.510
895.674	191.558
895.802	230.635
895.930	191.221
896.058	181.808
896.187	188.058
896.315	182.548
896.443	192.423
896.571	208.904
896.699	185.750
896.827	188.740
896.955	190.779
897.083	190.192
897.212	185.077
897.340	186.173
897.468	188.096
897.596	183.365
897.724	183.000
897.852	179.548
897.980	180.721
898.108	192.635
898.237	186.683
898.365	183.856
898.493	189.365
898.621	184.442
898.749	183.740
898.877	187.490
899.005	185.125
899.133	187.644
899.262	200.212
899.390	183.058
899.518	188.279
899.646	178.740
899.774	176.635
899.902	181.327
900.030	195.115
900.158	183.269
900.287	186.529
900.415	180.500
900.543	186.058
900.671	191.375
900.799	181.019
900.927	183.240
901.055	192.221
901.183	195.712
901.312	192.971
901.440	178.885
901.568	180.375
901.696	181.750
901.824	179.279
901.952	179.596
902.080	188.058
902.208	181.817
902.337	192.904
902.465	183.135
902.593	199.221
902.721	205.817
902.849	205.596
902.977	185.019
903.105	184.423
903.233	188.125
903.362	177.317
903.490	192.548
903.618	179.798
903.746	176.865
903.874	184.375
904.002	180.096
904.130	195.760
904.258	175.875
904.387	188.173
904.515	174.894
904.643	183.827
904.771	179.567
904.899	182.173
905.027	186.000
905.155	182.096
905.283	177.904
905.412	195.154
905.540	186.885
905.668	179.404
905.796	182.404
905.924	181.721
906.052	180.346
906.180	187.692
906.308	181.404
906.437	175.808
906.565	182.298
906.693	191.288
906.821	178.548
906.949	183.202
907.077	173.038
907.205	185.413
907.333	172.202
907.462	177.635
907.590	183.904
907.718	177.481
907.846	186.269
907.974	176.212
908.102	181.096
908.230	185.942
908.358	180.808
908.487	175.615
908.615	192.577
908.743	190.462
908.871	179.788
908.999	175.635
909.127	179.615
909.255	190.904
909.383	173.962
909.512	175.452
909.640	191.933
909.768	182.385
909.896	188.135
910.024	188.750
910.152	189.712
910.280	189.433
910.408	176.375
910.537	177.423
910.665	184.760
910.793	188.212
910.921	187.288
911.049	187.760
911.177	191.087
911.305	180.837
911.433	205.904
911.562	184.750
911.690	186.192
911.818	183.000
911.946	179.635
912.074	189.288
912.202	183.750
912.330	199.212
912.458	175.452
912.587	183.087
912.715	187.500
912.843	196.260
912.971	189.721
913.099	202.067
913.227	193.288
913.355	189.769
913.483	200.750
913.612	199.000
913.740	215.413
913.868	190.750
