90_110_0_Pol_at_750.00nm_cut_at_1179.00Y_01.dat
03.07.2023
11:28:55
cut middle at Y: 1179.00
top cursor: 1231 down cursor: 1127 mean of: 104 lines , 2560 datapoints
wavelength(nm)	intensity[arb. units]
585.996	9786.865
586.124	9594.760
586.252	9591.029
586.380	9605.567
586.508	9629.827
586.637	9728.154
586.765	9674.788
586.893	9699.567
587.021	9756.000
587.149	9758.635
587.277	9766.865
587.405	9806.173
587.533	9863.692
587.662	9871.452
587.790	9812.990
587.918	9818.837
588.046	9827.240
588.174	9858.279
588.302	9837.779
588.430	9862.173
588.558	9871.481
588.687	9890.673
588.815	9863.856
588.943	9859.183
589.071	9826.490
589.199	9867.433
589.327	9893.683
589.455	9943.462
589.583	9873.606
589.712	9831.971
589.840	9868.433
589.968	9833.423
590.096	9862.673
590.224	9848.010
590.352	9900.462
590.480	9866.125
590.608	9823.779
590.737	9870.567
590.865	9944.500
590.993	9802.106
591.121	9856.971
591.249	9837.721
591.377	9844.894
591.505	9955.115
591.633	9841.212
591.762	9848.529
591.890	9863.462
592.018	9940.587
592.146	9896.500
592.274	9883.029
592.402	9884.442
592.530	10061.596
592.658	9966.817
592.787	9967.356
592.915	10033.865
593.043	9896.192
593.171	9958.683
593.299	9966.663
593.427	9973.394
593.555	9996.577
593.683	9983.202
593.812	10021.337
593.940	10025.154
594.068	10035.010
594.196	10022.058
594.324	10060.058
594.452	10243.721
594.580	10157.923
594.708	10189.000
594.837	10133.452
594.965	10265.548
595.093	10194.510
595.221	10287.192
595.349	10262.029
595.477	10266.481
595.605	10305.625
595.733	10327.471
595.862	10329.000
595.990	10373.625
596.118	10398.096
596.246	10451.096
596.374	10392.365
596.502	10419.635
596.630	10429.356
596.758	10410.240
596.887	10437.106
597.015	10472.106
597.143	10457.606
597.271	10458.788
597.399	10516.144
597.527	10486.923
597.655	10477.202
597.783	10526.385
597.912	10502.702
598.040	10548.279
598.168	10512.308
598.296	10433.125
598.424	10655.615
598.552	10493.269
598.680	10540.587
598.808	10574.635
598.937	10530.038
599.065	10524.000
599.193	10579.625
599.321	10516.106
599.449	10512.452
599.577	10501.433
599.705	10537.635
599.833	10492.846
599.962	10450.933
600.090	10485.702
600.218	10493.231
600.346	10473.510
600.474	10451.683
600.602	10473.481
600.730	10486.904
600.858	10468.865
600.987	10537.308
601.115	10473.394
601.243	10557.067
601.371	10578.510
601.499	10550.750
601.627	10514.644
601.755	10528.760
601.883	10561.692
602.012	10446.558
602.140	10580.683
602.268	10619.183
602.396	10685.269
602.524	10582.115
602.652	10662.231
602.780	10642.365
602.908	10676.096
603.037	10759.644
603.165	10752.942
603.293	10759.894
603.421	10761.712
603.549	10784.019
603.677	10840.413
603.805	10840.260
603.933	10874.038
604.062	10924.635
604.190	10997.548
604.318	11001.385
604.446	10983.346
604.574	11039.644
604.702	11065.933
604.830	11069.827
604.958	11094.029
605.087	11141.413
605.215	11181.183
605.343	11301.875
605.471	11242.183
605.599	11276.952
605.727	11383.702
605.855	11349.365
605.983	11351.942
606.112	11444.548
606.240	11427.510
606.368	11420.375
606.496	11404.798
606.624	11541.192
606.752	11433.721
606.880	11509.260
607.008	11475.596
607.137	11496.019
607.265	11578.644
607.393	11547.817
607.521	11608.029
607.649	11505.721
607.777	11516.433
607.905	11582.250
608.033	11480.837
608.162	11521.000
608.290	11516.644
608.418	11635.875
608.546	11583.096
608.674	11617.413
608.802	11531.375
608.930	11534.712
609.058	11498.712
609.187	11516.548
609.315	11504.644
609.443	11485.702
609.571	11623.894
609.699	11494.260
609.827	11553.769
609.955	11520.529
610.083	11446.683
610.212	11474.279
610.340	11425.154
610.468	11434.413
610.596	11455.269
610.724	11406.885
610.852	11431.202
610.980	11427.413
611.108	11405.154
611.237	11408.490
611.365	11412.731
611.493	11402.885
611.621	11398.865
611.749	11402.933
611.877	11439.048
612.005	11441.433
612.133	11457.115
612.262	11427.760
612.390	11531.327
612.518	11518.865
612.646	11436.490
612.774	11557.567
612.902	11560.567
613.030	11564.077
613.158	11529.385
613.287	11647.779
613.415	11543.702
613.543	11572.596
613.671	11599.135
613.799	11615.558
613.927	11629.548
614.055	11673.240
614.183	11657.029
614.312	11644.760
614.440	11802.154
614.568	11750.375
614.696	11777.750
614.824	11784.394
614.952	11815.635
615.080	11817.817
615.208	11866.346
615.337	12002.894
615.465	11897.077
615.593	11954.096
615.721	11919.125
615.849	12032.106
615.977	11963.442
616.105	12034.731
616.233	12028.442
616.362	12076.048
616.490	12053.500
616.618	12120.481
616.746	12250.240
616.874	12198.481
617.002	12199.240
617.130	12242.029
617.258	12175.654
617.387	12196.000
617.515	12253.019
617.643	12246.529
617.771	12289.038
617.899	12249.923
618.027	12281.385
618.155	12329.413
618.283	12325.375
618.412	12310.375
618.540	12410.462
618.668	12365.048
618.796	12349.923
618.924	12263.923
619.052	12330.606
619.180	12319.558
619.308	12345.058
619.437	12336.788
619.565	12340.962
619.693	12323.279
619.821	12346.125
619.949	12259.385
620.077	12332.288
620.205	12352.404
620.333	12372.423
620.462	12331.337
620.590	12356.067
620.718	12372.587
620.846	12354.163
620.974	12342.385
621.102	12426.904
621.230	12368.298
621.358	12469.923
621.487	12301.038
621.615	12354.240
621.743	12280.558
621.871	12354.769
621.999	12246.173
622.127	12309.904
622.255	12257.644
622.383	12244.240
622.512	12252.250
622.640	12281.875
622.768	12296.558
622.896	12359.519
623.024	12286.538
623.152	12252.683
623.280	12310.750
623.408	12234.654
623.537	12286.760
623.665	12223.452
623.793	12305.471
623.921	12276.163
624.049	12229.538
624.177	12220.846
624.305	12222.231
624.433	12220.606
624.562	12225.490
624.690	12376.644
624.818	12161.548
624.946	12202.067
625.074	12167.038
625.202	12154.731
625.330	12185.010
625.458	12270.663
625.587	12140.635
625.715	12188.663
625.843	12165.663
625.971	12201.115
626.099	12187.154
626.227	12193.519
626.355	12130.644
626.483	12229.548
626.612	12149.240
626.740	12189.260
626.868	12143.538
626.996	12231.125
627.124	12146.894
627.252	12149.048
627.380	12188.577
627.508	12141.308
627.637	12160.683
627.765	12210.827
627.893	12199.510
628.021	12290.212
628.149	12187.375
628.277	12319.125
628.405	12233.712
628.533	12227.683
628.662	12262.942
628.790	12336.981
628.918	12257.808
629.046	12378.154
629.174	12240.587
629.302	12298.913
629.430	12278.433
629.558	12341.538
629.687	12258.481
629.815	12364.000
629.943	12465.000
630.071	12396.846
630.199	12350.240
630.327	12428.721
630.455	12424.731
630.583	12415.212
630.712	12431.510
630.840	12445.356
630.968	12464.077
631.096	12468.837
631.224	12470.135
631.352	12599.490
631.480	12530.433
631.608	12696.721
631.737	12480.135
631.865	12660.048
631.993	12613.481
632.121	12729.538
632.249	12588.375
632.377	12611.875
632.505	12594.885
632.633	12603.644
632.762	12579.731
632.890	12579.548
633.018	12587.442
633.146	12546.721
633.274	12549.375
633.402	12595.279
633.530	12517.356
633.658	12542.702
633.787	12531.173
633.915	12544.356
634.043	12545.490
634.171	12579.221
634.299	12571.990
634.427	12522.462
634.555	12741.010
634.683	12541.625
634.812	12513.971
634.940	12466.202
635.068	12451.500
635.196	12440.125
635.324	12486.163
635.452	12448.125
635.580	12542.212
635.708	12408.760
635.837	12416.885
635.965	12403.933
636.093	12372.394
636.221	12362.971
636.349	12279.481
636.477	12292.317
636.605	12338.308
636.733	12260.327
636.862	12256.000
636.990	12278.308
637.118	12241.442
637.246	12207.865
637.374	12346.433
637.502	12112.183
637.630	12136.827
637.758	12123.596
637.887	12070.962
638.015	12205.298
638.143	12115.471
638.271	12033.990
638.399	12087.721
638.527	12017.779
638.655	12010.538
638.783	11976.279
638.912	12035.644
639.040	11956.538
639.168	11930.192
639.296	11888.125
639.424	11993.981
639.552	11907.654
639.680	11900.173
639.808	11865.231
639.937	11831.029
640.065	11853.702
640.193	11819.183
640.321	11899.250
640.449	11889.933
640.577	11810.423
640.705	11847.077
640.833	11831.365
640.962	11893.538
641.090	11746.558
641.218	11798.904
641.346	11865.212
641.474	11817.971
641.602	11791.269
641.730	11742.577
641.858	11738.423
641.987	11741.231
642.115	11912.856
642.243	11759.577
642.371	11889.481
642.499	11722.663
642.627	11813.740
642.755	11718.529
642.883	11738.240
643.012	11752.712
643.140	11773.885
643.268	11783.260
643.396	11682.481
643.524	11736.606
643.652	11809.356
643.780	11707.365
643.908	11692.279
644.037	11836.933
644.165	11806.471
644.293	11906.433
644.421	11689.356
644.549	11746.346
644.677	11747.298
644.805	11711.202
644.933	11677.702
645.062	11701.269
645.190	11845.981
645.318	11739.202
645.446	11660.596
645.574	11679.798
645.702	11696.673
645.830	11705.115
645.958	11635.481
646.087	11625.490
646.215	11567.990
646.343	11634.019
646.471	11798.231
646.599	11586.942
646.727	11582.644
646.855	11603.952
646.983	11552.250
647.112	11671.673
647.240	11569.817
647.368	11630.135
647.496	11525.019
647.624	11543.558
647.752	11500.298
647.880	11495.567
648.008	11497.000
648.137	11549.673
648.265	11432.606
648.393	11545.058
648.521	11442.375
648.649	11549.481
648.777	11471.490
648.905	11415.567
649.033	11482.154
649.162	11329.990
649.290	11323.058
649.418	11317.933
649.546	11461.115
649.674	11322.269
649.802	11267.990
649.930	11197.058
650.058	11226.385
650.187	11217.298
650.315	11194.404
650.443	11191.827
650.571	11134.202
650.699	11112.221
650.827	11076.913
650.955	11059.692
651.083	11115.875
651.212	11038.433
651.340	11038.933
651.468	10980.029
651.596	10969.000
651.724	10997.644
651.852	10929.567
651.980	10914.404
652.108	10907.337
652.237	10915.279
652.365	10844.154
652.493	10827.769
652.621	10836.577
652.749	10848.548
652.877	10819.183
653.005	10841.942
653.133	10756.500
653.262	10727.183
653.390	10720.635
653.518	10851.337
653.646	10692.885
653.774	10637.529
653.902	10752.827
654.030	10698.067
654.158	10597.365
654.287	10650.067
654.415	10616.712
654.543	10615.375
654.671	10560.779
654.799	10580.577
654.927	10548.269
655.055	10483.433
655.183	10500.673
655.312	10479.115
655.440	10450.596
655.568	10459.308
655.696	10498.135
655.824	10446.221
655.952	10424.385
656.080	10357.577
656.208	10395.154
656.337	10420.288
656.465	10545.663
656.593	10335.356
656.721	10421.683
656.849	10400.894
656.977	10260.596
657.105	10295.769
657.233	10292.721
657.362	10342.615
657.490	10304.288
657.618	10269.452
657.746	10217.683
657.874	10140.404
658.002	10131.567
658.130	10065.606
658.258	10088.212
658.387	10026.490
658.515	10047.183
658.643	10017.462
658.771	10048.462
658.899	9960.010
659.027	9995.452
659.155	9965.913
659.283	9922.163
659.412	9967.183
659.540	9931.538
659.668	9964.817
659.796	10035.490
659.924	9957.212
660.052	10036.923
660.180	9925.692
660.308	9980.471
660.437	9968.500
660.565	9884.192
660.693	9815.471
660.821	10002.817
660.949	9804.202
661.077	9806.827
661.205	9956.558
661.333	9807.106
661.462	9738.404
661.590	9868.865
661.718	9785.346
661.846	9785.154
661.974	9725.192
662.102	9737.769
662.230	9704.385
662.358	9588.712
662.487	9687.231
662.615	9623.279
662.743	9685.221
662.871	9634.808
662.999	9565.837
663.127	9556.087
663.255	9553.240
663.383	9653.115
663.512	9497.904
663.640	9563.865
663.768	9554.452
663.896	9454.413
664.024	9515.317
664.152	9479.904
664.280	9523.442
664.408	9448.865
664.537	9415.779
664.665	9449.577
664.793	9436.885
664.921	9378.904
665.049	9463.798
665.177	9363.904
665.305	9394.577
665.433	9375.212
665.562	9515.192
665.690	9375.231
665.818	9472.788
665.946	9260.712
666.074	9291.385
666.202	9284.038
666.330	9254.942
666.458	9661.212
666.587	9237.606
666.715	9240.115
666.843	9177.327
666.971	9218.077
667.099	9224.558
667.227	9260.856
667.355	9211.885
667.483	9154.567
667.612	9179.519
667.740	9150.606
667.868	9077.337
667.996	9094.548
668.124	9135.587
668.252	9204.000
668.380	9032.587
668.508	9093.952
668.637	9017.760
668.765	9060.519
668.893	9021.260
669.021	8946.548
669.149	9024.144
669.277	8918.077
669.405	9066.442
669.533	9020.673
669.662	8925.856
669.790	8916.760
669.918	8951.721
670.046	9048.058
670.174	8842.452
670.302	8842.173
670.430	8792.596
670.558	8808.154
670.687	8961.817
670.815	8761.452
670.943	8804.087
671.071	8716.500
671.199	8672.577
671.327	8707.942
671.455	8735.327
671.583	8658.423
671.712	8637.144
671.840	8670.202
671.968	8788.913
672.096	8785.548
672.224	8554.798
672.352	8541.635
672.480	8493.923
672.608	8568.625
672.737	8514.962
672.865	8444.212
672.993	8446.500
673.121	8456.885
673.249	8434.721
673.377	8376.365
673.505	8371.221
673.633	8433.933
673.762	8324.442
673.890	8353.087
674.018	8334.779
674.146	8292.212
674.274	8298.596
674.402	8333.423
674.530	8246.058
674.658	8198.519
674.787	8194.471
674.915	8320.538
675.043	8165.087
675.171	8186.442
675.299	8113.202
675.427	8075.913
675.555	8081.317
675.683	8077.558
675.812	8064.971
675.940	8035.404
676.068	7955.327
676.196	8012.990
676.324	7924.519
676.452	7910.894
676.580	7891.067
676.708	7882.087
676.837	7843.971
676.965	7970.163
677.093	7962.558
677.221	7847.221
677.349	7794.500
677.477	7852.471
677.605	7742.779
677.733	7779.721
677.862	7741.673
677.990	7756.106
678.118	7770.740
678.246	7674.558
678.374	7725.394
678.502	7630.279
678.630	7601.548
678.758	7629.010
678.887	7740.529
679.015	7525.567
679.143	7525.808
679.271	7508.606
679.399	7536.606
679.527	7507.740
679.655	7575.096
679.783	7449.202
679.912	7428.913
680.040	7624.779
680.168	7426.587
680.296	7440.827
680.424	7369.856
680.552	7379.423
680.680	7350.971
680.808	7345.740
680.937	7317.423
681.065	7353.462
681.193	7276.308
681.321	7262.240
681.449	7302.481
681.577	7248.760
681.705	7232.644
681.833	7263.356
681.962	7224.019
682.090	7165.019
682.218	7158.587
682.346	7178.933
682.474	7128.135
682.602	7131.385
682.730	7200.308
682.858	7091.192
682.987	7099.212
683.115	7143.144
683.243	7067.856
683.371	7072.971
683.499	7029.962
683.627	7091.798
683.755	7016.913
683.883	6988.625
684.012	7044.346
684.140	6954.962
684.268	6983.067
684.396	7034.500
684.524	6977.769
684.652	6992.635
684.780	6968.615
684.908	6949.779
685.037	6966.404
685.165	6953.625
685.293	7016.538
685.421	6918.317
685.549	6939.385
685.677	6882.096
685.805	6929.394
685.933	6867.183
686.062	6855.894
686.190	6846.577
686.318	6838.760
686.446	6799.548
686.574	6776.567
686.702	6821.558
686.830	6764.615
686.958	6833.885
687.087	6705.375
687.215	6740.163
687.343	6737.308
687.471	6882.106
687.599	6626.404
687.727	6666.837
687.855	6624.212
687.983	6610.635
688.112	6662.587
688.240	6629.029
688.368	6663.048
688.496	6594.788
688.624	6557.692
688.752	6704.346
688.880	6569.567
689.008	6551.490
689.137	6553.000
689.265	6491.356
689.393	6487.865
689.521	6499.933
689.649	6593.365
689.777	6503.692
689.905	6567.087
690.033	6444.260
690.162	6419.856
690.290	6477.692
690.418	6355.154
690.546	6431.731
690.674	6431.721
690.802	6414.442
690.930	6399.442
691.058	6380.433
691.187	6320.779
691.315	6322.250
691.443	6294.769
691.571	6301.827
691.699	6262.596
691.827	6229.231
691.955	6247.183
692.083	6237.712
692.212	6189.615
692.340	6202.067
692.468	6229.635
692.596	6222.731
692.724	6165.010
692.852	6214.885
692.980	6169.712
693.108	6225.250
693.237	6111.837
693.365	6124.279
693.493	6076.038
693.621	6089.135
693.749	6055.712
693.877	6092.077
694.005	6013.981
694.133	5997.904
694.262	6077.548
694.390	5956.683
694.518	5965.971
694.646	5963.183
694.774	5899.644
694.902	5914.683
695.030	5890.413
695.158	5888.260
695.287	5872.702
695.415	5855.221
695.543	5850.192
695.671	5787.529
695.799	5909.413
695.927	5810.721
696.055	5809.144
696.183	5747.596
696.312	5930.683
696.440	5754.240
696.568	5760.558
696.696	5659.760
696.824	5637.442
696.952	5636.183
697.080	5648.721
697.208	5600.846
697.337	5618.567
697.465	5578.288
697.593	5540.096
697.721	5639.337
697.849	5530.827
697.977	5569.173
698.105	5608.144
698.233	5521.760
698.362	5458.606
698.490	5577.452
698.618	5425.288
698.746	5420.683
698.874	5486.279
699.002	5444.913
699.130	5436.019
699.258	5391.654
699.387	5320.058
699.515	5386.827
699.643	5365.269
699.771	5428.808
699.899	5326.365
700.027	5269.731
700.155	5334.327
700.283	5205.433
700.412	5237.779
700.540	5280.731
700.668	5323.577
700.796	5192.038
700.924	5255.644
701.052	5228.250
701.180	5219.962
701.308	5141.500
701.437	5090.615
701.565	5104.538
701.693	5138.260
701.821	5299.760
701.949	5061.490
702.077	5067.490
702.205	5149.596
702.333	5052.490
702.462	4998.308
702.590	5079.240
702.718	4972.096
702.846	5162.721
702.974	4933.846
703.102	4958.827
703.230	4980.971
703.358	4895.635
703.487	4918.433
703.615	4905.038
703.743	4862.942
703.871	4855.481
703.999	4860.885
704.127	4833.817
704.255	4804.663
704.383	4836.404
704.512	4866.231
704.640	4828.837
704.768	4896.625
704.896	4749.885
705.024	4699.471
705.152	4733.875
705.280	4771.913
705.408	4663.096
705.537	4646.894
705.665	4688.827
705.793	4664.846
705.921	4664.394
706.049	4598.048
706.177	4642.913
706.305	4569.510
706.433	4608.577
706.562	4585.519
706.690	4593.481
706.818	4571.760
706.946	4502.462
707.074	4462.202
707.202	4479.490
707.330	4455.606
707.458	4444.615
707.587	4423.577
707.715	4444.837
707.843	4437.442
707.971	4440.971
708.099	4347.760
708.227	4343.115
708.355	4356.260
708.483	4334.231
708.612	4358.404
708.740	4310.462
708.868	4307.962
708.996	4354.904
709.124	4344.337
709.252	4294.654
709.380	4301.798
709.508	4237.673
709.637	4258.913
709.765	4249.587
709.893	4277.529
710.021	4198.606
710.149	4298.010
710.277	4163.404
710.405	4183.231
710.533	4176.019
710.662	4152.115
710.790	4261.702
710.918	4131.712
711.046	4175.346
711.174	4129.048
711.302	4141.962
711.430	4131.413
711.558	4148.125
711.687	4101.048
711.815	4059.375
711.943	4039.529
712.071	4053.212
712.199	4073.202
712.327	4104.423
712.455	3998.279
712.583	4168.327
712.712	4029.760
712.840	4047.654
712.968	3984.644
713.096	3973.433
713.224	3956.683
713.352	3969.260
713.480	3922.337
713.608	3903.192
713.737	3880.125
713.865	3935.288
713.993	3926.529
714.121	3899.356
714.249	3850.308
714.377	3848.212
714.505	3845.077
714.633	3859.452
714.762	3842.135
714.890	3828.913
715.018	3823.904
715.146	3853.913
715.274	3800.923
715.402	3786.346
715.530	3770.817
715.658	3799.827
715.787	3761.202
715.915	3844.673
716.043	3749.779
716.171	3842.798
716.299	3696.250
716.427	3772.308
716.555	3703.106
716.683	3684.683
716.812	3680.519
716.940	3669.500
717.068	3641.913
717.196	3790.904
717.324	3667.962
717.452	3642.462
717.580	3677.394
717.708	3600.635
717.837	3631.923
717.965	3640.375
718.093	3602.221
718.221	3622.308
718.349	3643.375
718.477	3577.327
718.605	3646.721
718.733	3576.904
718.862	3604.683
718.990	3538.952
719.118	3587.625
719.246	3514.885
719.374	3515.702
719.502	3524.490
719.630	3603.212
719.758	3480.279
719.887	3455.962
720.015	3491.846
720.143	3506.885
720.271	3419.433
720.399	3464.183
720.527	3420.817
720.655	3491.212
720.783	3386.942
720.912	3381.481
721.040	3397.635
721.168	3387.250
721.296	3330.548
721.424	3350.875
721.552	3331.894
721.680	3370.260
721.808	3345.933
721.937	3347.212
722.065	3358.558
722.193	3305.712
722.321	3301.221
722.449	3298.433
722.577	3246.173
722.705	3227.510
722.833	3253.615
722.962	3272.202
723.090	3216.183
723.218	3208.596
723.346	3258.904
723.474	3180.740
723.602	3155.894
723.730	3163.346
723.858	3146.740
723.987	3145.837
724.115	3132.317
724.243	3159.019
724.371	3116.019
724.499	3101.596
724.627	3106.125
724.755	3074.673
724.883	3157.433
725.012	3213.798
725.140	3101.096
725.268	3006.144
725.396	3082.106
725.524	3131.856
725.652	3020.981
725.780	3099.817
725.908	2983.904
726.037	2987.087
726.165	3006.510
726.293	2964.192
726.421	2989.394
726.549	2988.067
726.677	2968.173
726.805	2910.490
726.933	2948.327
727.062	2919.538
727.190	2882.644
727.318	2882.731
727.446	2869.096
727.574	2852.760
727.702	2857.433
727.830	2889.096
727.958	2856.413
728.087	2920.596
728.215	2933.856
728.343	2826.654
728.471	2843.519
728.599	2941.750
728.727	2794.365
728.855	2781.058
728.983	2746.365
729.112	2764.529
729.240	2782.721
729.368	2756.519
729.496	2758.269
729.624	2760.298
729.752	2690.702
729.880	2696.423
730.008	2686.279
730.137	2706.115
730.265	2683.837
730.393	2845.808
730.521	2805.596
730.649	2662.115
730.777	2625.106
730.905	2654.010
731.033	2612.817
731.162	2713.721
731.290	2695.606
731.418	2629.212
731.546	2605.798
731.674	2611.788
731.802	2573.635
731.930	2653.990
732.058	2674.587
732.187	2599.827
732.315	2609.673
732.443	2665.788
732.571	2575.712
732.699	2560.356
732.827	2564.423
732.955	2521.625
733.083	2513.404
733.212	2553.423
733.340	2483.894
733.468	2523.058
733.596	2509.615
733.724	2479.317
733.852	2498.317
733.980	2481.442
734.108	2613.000
734.237	2504.087
734.365	2469.423
734.493	2459.923
734.621	2450.452
734.749	2459.192
734.877	2463.712
735.005	2463.125
735.133	2441.904
735.262	2506.644
735.390	2437.721
735.518	2422.692
735.646	2472.096
735.774	2474.567
735.902	2470.904
736.030	2400.904
736.158	2400.731
736.287	2438.875
736.415	2398.962
736.543	2395.394
736.671	2371.471
736.799	2407.106
736.927	2390.837
737.055	2454.202
737.183	2360.817
737.312	2354.981
737.440	2364.481
737.568	2407.490
737.696	2402.933
737.824	2377.481
737.952	2590.038
738.080	2348.500
738.208	2373.077
738.337	2329.529
738.465	2352.125
738.593	2337.558
738.721	2328.750
738.849	2361.654
738.977	2315.635
739.105	2344.702
739.233	2325.663
739.362	2284.923
739.490	2300.683
739.618	2319.865
739.746	2311.212
739.874	2281.548
740.002	2295.558
740.130	2263.221
740.258	2256.625
740.387	2288.394
740.515	2281.894
740.643	2246.769
740.771	2284.019
740.899	2244.192
741.027	2249.010
741.155	2239.837
741.283	2242.577
741.412	2267.942
741.540	2236.942
741.668	2208.788
741.796	2231.154
741.924	2220.144
742.052	2212.577
742.180	2199.327
742.308	2171.788
742.437	2185.000
742.565	2180.702
742.693	2186.144
742.821	2175.894
742.949	2148.000
743.077	2136.010
743.205	2138.644
743.333	2141.654
743.462	2138.875
743.590	2126.288
743.718	2125.192
743.846	2115.240
743.974	2133.904
744.102	2111.173
744.230	2107.087
744.358	2089.192
744.487	2078.327
744.615	2065.442
744.743	2077.529
744.871	2058.875
744.999	2055.288
745.127	2055.317
745.255	2024.279
745.383	2042.308
745.512	2027.221
745.640	2019.279
745.768	2018.788
745.896	2020.913
746.024	2012.135
746.152	2000.365
746.280	1991.856
746.408	1996.760
746.537	1986.865
746.665	1990.875
746.793	1963.913
746.921	1955.067
747.049	1973.779
747.177	1940.163
747.305	1972.490
747.433	1952.365
747.562	1930.510
747.690	1944.750
747.818	1913.856
747.946	1916.962
748.074	1907.923
748.202	1917.240
748.330	1888.144
748.458	1885.567
748.587	1876.279
748.715	1891.058
748.843	1873.038
748.971	1865.423
749.099	1870.442
749.227	1873.221
749.355	1883.558
749.483	1831.125
749.612	1855.740
749.740	1846.356
749.868	1819.788
749.996	1825.221
750.124	1840.856
750.252	1801.365
750.380	1811.250
750.508	1814.663
750.637	1798.029
750.765	1798.135
750.893	1783.365
751.021	1768.904
751.149	1790.077
751.277	1764.048
751.405	1751.673
751.533	1755.846
751.662	1730.663
751.790	1735.173
751.918	1729.346
752.046	1728.654
752.174	1706.760
752.302	1710.423
752.430	1697.048
752.558	1700.135
752.687	1697.712
752.815	1683.788
752.943	1692.029
753.071	1655.962
753.199	1677.308
753.327	1684.288
753.455	1657.808
753.583	1640.260
753.712	1630.904
753.840	1648.788
753.968	1615.288
754.096	1636.317
754.224	1631.365
754.352	1603.154
754.480	1629.135
754.608	1600.423
754.737	1603.365
754.865	1598.875
754.993	1590.183
755.121	1575.115
755.249	1558.029
755.377	1524.452
755.505	1556.760
755.633	1551.837
755.762	1549.971
755.890	1535.885
756.018	1532.510
756.146	1520.058
756.274	1505.885
756.402	1490.817
756.530	1524.962
756.658	1499.952
756.787	1475.490
756.915	1482.500
757.043	1470.452
757.171	1482.952
757.299	1472.519
757.427	1450.875
757.555	1439.644
757.683	1449.740
757.812	1451.260
757.940	1431.087
758.068	1435.279
758.196	1425.212
758.324	1418.423
758.452	1412.404
758.580	1409.173
758.708	1402.404
758.837	1420.683
758.965	1402.721
759.093	1395.760
759.221	1368.702
759.349	1367.712
759.477	1352.894
759.605	1347.933
759.733	1362.106
759.862	1341.712
759.990	1347.875
760.118	1335.279
760.246	1346.577
760.374	1338.202
760.502	1326.721
760.630	1303.192
760.758	1308.048
760.887	1297.990
761.015	1281.481
761.143	1307.048
761.271	1295.183
761.399	1280.269
761.527	1296.904
761.655	1285.885
761.783	1260.587
761.912	1262.231
762.040	1259.981
762.168	1240.337
762.296	1236.962
762.424	1242.587
762.552	1236.365
762.680	1224.625
762.808	1236.740
762.937	1216.702
763.065	1200.029
763.193	1193.375
763.321	1189.337
763.449	1183.904
763.577	1170.183
763.705	1189.635
763.833	1187.442
763.962	1163.163
764.090	1160.712
764.218	1158.740
764.346	1150.962
764.474	1152.125
764.602	1137.385
764.730	1149.010
764.858	1128.510
764.987	1131.615
765.115	1116.212
765.243	1110.952
765.371	1112.010
765.499	1103.750
765.627	1104.798
765.755	1102.788
765.883	1092.471
766.012	1088.615
766.140	1087.885
766.268	1072.375
766.396	1078.471
766.524	1069.038
766.652	1063.510
766.780	1061.317
766.908	1062.529
767.037	1066.760
767.165	1050.135
767.293	1057.212
767.421	1046.029
767.549	1017.279
767.677	1052.356
767.805	1029.625
767.933	1034.308
768.062	1009.375
768.190	1008.625
768.318	1008.615
768.446	1003.298
768.574	999.817
768.702	1008.221
768.830	1002.154
768.958	989.625
769.087	1010.385
769.215	995.212
769.343	985.298
769.471	998.913
769.599	985.654
769.727	976.029
769.855	962.500
769.983	1000.173
770.112	961.404
770.240	953.288
770.368	951.971
770.496	952.663
770.624	955.548
770.752	944.288
770.880	951.327
771.008	940.596
771.137	931.625
771.265	933.048
771.393	920.904
771.521	926.654
771.649	929.106
771.777	953.721
771.905	970.000
772.033	950.558
772.162	910.144
772.290	906.673
772.418	910.394
772.546	899.087
772.674	894.404
772.802	884.817
772.930	896.615
773.058	886.135
773.187	887.529
773.315	877.183
773.443	885.375
773.571	877.346
773.699	864.288
773.827	879.433
773.955	883.971
774.083	869.817
774.212	853.192
774.340	859.740
774.468	857.596
774.596	844.500
774.724	859.529
774.852	857.163
774.980	843.558
775.108	840.558
775.237	834.019
775.365	833.721
775.493	839.394
775.621	827.462
775.749	833.817
775.877	827.442
776.005	822.615
776.133	813.106
776.262	809.279
776.390	817.875
776.518	801.692
776.646	813.058
776.774	803.808
776.902	798.548
777.030	792.000
777.158	791.260
777.287	809.923
777.415	779.827
777.543	786.413
777.671	788.462
777.799	787.337
777.927	776.769
778.055	787.173
778.183	768.212
778.312	766.683
778.440	771.952
778.568	781.471
778.696	776.135
778.824	763.837
778.952	763.625
779.080	755.183
779.208	754.837
779.337	752.212
779.465	756.971
779.593	748.337
779.721	752.212
779.849	737.827
779.977	736.500
780.105	735.894
780.233	731.654
780.362	725.490
780.490	718.096
780.618	728.635
780.746	717.846
780.874	717.971
781.002	711.385
781.130	702.212
781.258	708.827
781.387	711.606
781.515	701.212
781.643	694.712
781.771	693.288
781.899	704.029
782.027	694.971
782.155	685.904
782.283	691.885
782.412	690.067
782.540	688.827
782.668	672.567
782.796	678.327
782.924	688.798
783.052	683.462
783.180	667.356
783.308	670.971
783.437	668.394
783.565	671.106
783.693	672.106
783.821	663.990
783.949	658.433
784.077	657.452
784.205	658.288
784.333	651.202
784.462	652.606
784.590	644.913
784.718	634.231
784.846	648.904
784.974	657.462
785.102	636.212
785.230	637.423
785.358	625.702
785.487	629.558
785.615	621.048
785.743	618.721
785.871	632.923
785.999	622.010
786.127	626.375
786.255	612.519
786.383	605.923
786.512	614.298
786.640	611.837
786.768	598.731
786.896	601.250
787.024	588.250
787.152	590.356
787.280	605.692
787.408	595.279
787.537	605.413
787.665	598.125
787.793	584.452
787.921	581.500
788.049	581.413
788.177	580.279
788.305	575.173
788.433	583.298
788.562	571.404
788.690	565.577
788.818	567.327
788.946	566.510
789.074	562.933
789.202	554.760
789.330	553.000
789.458	558.394
789.587	551.817
789.715	555.327
789.843	558.317
789.971	546.452
790.099	538.452
790.227	542.192
790.355	538.962
790.483	543.529
790.612	539.471
790.740	544.529
790.868	531.173
790.996	542.577
791.124	547.317
791.252	536.712
791.380	518.413
791.508	531.192
791.637	528.375
791.765	512.481
791.893	531.250
792.021	521.010
792.149	508.779
792.277	513.933
792.405	505.625
792.533	512.654
792.662	510.500
792.790	504.712
792.918	506.683
793.046	497.500
793.174	504.452
793.302	494.250
793.430	493.462
793.558	503.212
793.687	491.452
793.815	483.481
793.943	499.385
794.071	478.596
794.199	486.096
794.327	481.798
794.455	488.048
794.583	479.615
794.712	479.404
794.840	470.279
794.968	472.202
795.096	484.981
795.224	453.087
795.352	506.692
795.480	457.250
795.608	459.769
795.737	456.077
795.865	452.721
795.993	459.962
796.121	453.875
796.249	447.442
796.377	451.423
796.505	451.548
796.633	451.202
796.762	438.654
796.890	440.394
797.018	444.404
797.146	446.846
797.274	440.154
797.402	436.827
797.530	425.885
797.658	431.596
797.787	443.942
797.915	438.596
798.043	422.904
798.171	432.644
798.299	418.865
798.427	423.865
798.555	436.423
798.683	418.471
798.812	446.423
798.940	460.096
799.068	448.587
799.196	424.144
799.324	419.260
799.452	404.837
799.580	403.865
799.708	404.827
799.837	407.788
799.965	398.019
800.093	401.048
800.221	392.750
800.349	399.000
800.477	394.760
800.605	388.317
800.733	406.462
800.862	395.952
800.990	388.337
801.118	391.615
801.246	388.856
801.374	392.087
801.502	380.875
801.630	383.317
801.758	378.337
801.887	371.933
802.015	382.875
802.143	368.721
802.271	373.740
802.399	367.683
802.527	363.808
802.655	372.952
802.783	370.442
802.912	366.615
803.040	361.029
803.168	360.933
803.296	368.865
803.424	356.385
803.552	365.288
803.680	360.981
803.808	356.000
803.937	357.106
804.065	358.904
804.193	362.346
804.321	373.865
804.449	358.115
804.577	357.683
804.705	370.558
804.833	351.740
804.962	345.606
805.090	346.462
805.218	340.087
805.346	340.029
805.474	348.654
805.602	347.923
805.730	351.365
805.858	333.048
805.987	335.779
806.115	337.981
806.243	345.442
806.371	334.856
806.499	335.010
806.627	328.394
806.755	330.673
806.883	334.163
807.012	327.375
807.140	331.740
807.268	318.981
807.396	327.510
807.524	322.702
807.652	330.375
807.780	322.442
807.908	318.548
808.037	334.337
808.165	326.894
808.293	319.346
808.421	320.529
808.549	312.548
808.677	314.962
808.805	328.087
808.933	314.798
809.062	313.837
809.190	323.106
809.318	318.981
809.446	307.712
809.574	316.962
809.702	302.423
809.830	299.404
809.958	316.010
810.087	310.365
810.215	302.356
810.343	310.683
810.471	309.192
810.599	297.221
810.727	307.846
810.855	298.404
810.983	299.760
811.112	300.452
811.240	294.433
811.368	297.000
811.496	303.692
811.624	298.817
811.752	297.317
811.880	310.298
812.008	302.788
812.137	301.087
812.265	291.663
812.393	296.010
812.521	285.990
812.649	290.721
812.777	283.442
812.905	298.904
813.033	298.865
813.162	285.327
813.290	282.538
813.418	287.462
813.546	283.317
813.674	282.135
813.802	280.385
813.930	283.077
814.058	275.337
814.187	280.808
814.315	282.904
814.443	275.606
814.571	279.317
814.699	269.058
814.827	274.808
814.955	278.490
815.083	273.596
815.212	274.827
815.340	262.058
815.468	278.654
815.596	266.760
815.724	271.385
815.852	276.202
815.980	269.298
816.108	270.154
816.237	271.010
816.365	276.019
816.493	270.702
816.621	276.413
816.749	257.298
816.877	326.962
817.005	277.115
817.133	269.529
817.262	264.788
817.390	256.587
817.518	268.625
817.646	252.865
817.774	251.077
817.902	256.712
818.030	249.702
818.158	265.183
818.287	255.404
818.415	253.385
818.543	247.625
818.671	255.183
818.799	251.750
818.927	248.913
819.055	271.077
819.183	256.000
819.312	266.365
819.440	248.875
819.568	243.885
819.696	249.337
819.824	247.288
819.952	246.846
820.080	244.115
820.208	246.183
820.337	247.692
820.465	240.375
820.593	242.452
820.721	241.933
820.849	241.346
820.977	239.750
821.105	244.404
821.233	233.808
821.362	247.740
821.490	237.010
821.618	244.183
821.746	249.346
821.874	238.606
822.002	230.625
822.130	229.346
822.258	235.058
822.387	235.462
822.515	242.154
822.643	234.423
822.771	233.788
822.899	237.769
823.027	232.077
823.155	233.846
823.283	248.365
823.412	238.337
823.540	227.471
823.668	227.577
823.796	227.779
823.924	228.548
824.052	225.817
824.180	231.481
824.308	229.567
824.437	239.423
824.565	235.029
824.693	215.721
824.821	219.673
824.949	229.423
825.077	226.096
825.205	215.663
825.333	224.779
825.462	230.019
825.590	222.721
825.718	219.740
825.846	218.990
825.974	217.731
826.102	218.346
826.230	223.875
826.358	226.212
826.487	222.173
826.615	215.779
826.743	212.231
826.871	218.538
826.999	214.221
827.127	221.106
827.255	215.029
827.383	213.385
827.512	213.529
827.640	219.385
827.768	238.048
827.896	208.087
828.024	218.712
828.152	208.471
828.280	214.971
828.408	207.365
828.537	215.327
828.665	205.798
828.793	210.933
828.921	208.481
829.049	214.740
829.177	209.827
829.305	204.904
829.433	208.490
829.562	205.048
829.690	209.087
829.818	213.721
829.946	207.346
830.074	207.442
830.202	202.923
830.330	209.077
830.458	193.721
830.587	211.471
830.715	202.587
830.843	198.413
830.971	206.327
831.099	206.885
831.227	232.663
831.355	200.481
831.483	204.346
831.612	203.952
831.740	198.913
831.868	202.048
831.996	207.663
832.124	199.740
832.252	207.779
832.380	202.817
832.508	200.913
832.637	197.798
832.765	209.250
832.893	202.327
833.021	195.577
833.149	195.567
833.277	197.192
833.405	203.202
833.533	192.606
833.662	199.865
833.790	194.385
833.918	198.933
834.046	193.288
834.174	193.154
834.302	201.673
834.430	191.173
834.558	192.779
834.687	197.875
834.815	197.202
834.943	191.231
835.071	195.846
835.199	196.827
835.327	190.817
835.455	200.856
835.583	191.567
835.712	192.221
835.840	193.317
835.968	187.942
836.096	198.202
836.224	188.750
836.352	194.827
836.480	186.519
836.608	185.673
836.737	192.317
836.865	184.606
836.993	192.971
837.121	197.615
837.249	199.827
837.377	185.288
837.505	183.712
837.633	190.375
837.762	189.846
837.890	189.087
838.018	190.538
838.146	184.875
838.274	187.673
838.402	188.654
838.530	201.010
838.658	190.788
838.787	196.808
838.915	180.010
839.043	191.250
839.171	182.923
839.299	189.365
839.427	205.721
839.555	195.231
839.683	182.529
839.812	187.135
839.940	182.635
840.068	186.010
840.196	211.606
840.324	205.058
840.452	189.019
840.580	183.990
840.708	176.462
840.837	188.500
840.965	182.673
841.093	181.202
841.221	185.317
841.349	178.500
841.477	176.375
841.605	175.846
841.733	182.913
841.862	190.077
841.990	181.519
842.118	179.471
842.246	180.990
842.374	173.577
842.502	187.125
842.630	181.817
842.758	176.856
842.887	182.548
843.015	190.135
843.143	179.048
843.271	181.558
843.399	178.760
843.527	179.423
843.655	177.298
843.783	176.269
843.912	175.635
844.040	170.288
844.168	177.433
844.296	189.760
844.424	188.740
844.552	185.837
844.680	180.933
844.808	177.212
844.937	178.346
845.065	175.346
845.193	192.038
845.321	179.856
845.449	186.702
845.577	178.365
845.705	174.433
845.833	174.212
845.962	185.471
846.090	177.125
846.218	187.077
846.346	186.404
846.474	177.519
846.602	173.375
846.730	175.625
846.858	175.885
846.987	173.356
847.115	182.125
847.243	185.760
847.371	166.077
847.499	170.106
847.627	177.740
847.755	173.317
847.883	183.077
848.012	186.423
848.140	167.192
848.268	170.673
848.396	174.981
848.524	181.721
848.652	175.077
848.780	164.885
848.908	174.644
849.037	173.577
849.165	170.990
849.293	178.404
849.421	172.817
849.549	176.231
849.677	170.356
849.805	179.442
849.933	169.260
850.062	178.154
850.190	171.952
850.318	172.692
850.446	175.981
850.574	174.038
850.702	170.058
850.830	166.933
850.958	172.394
851.087	172.865
851.215	162.135
851.343	169.731
851.471	170.990
851.599	178.760
851.727	183.471
851.855	171.346
851.983	177.856
852.112	169.404
852.240	176.788
852.368	180.788
852.496	170.452
852.624	170.846
852.752	181.933
852.880	172.404
853.008	174.010
853.137	172.596
853.265	176.365
853.393	170.067
853.521	170.452
853.649	177.375
853.777	168.058
853.905	162.990
854.033	162.817
854.162	165.990
854.290	166.635
854.418	184.471
854.546	196.269
854.674	185.490
854.802	171.308
854.930	164.221
855.058	169.990
855.187	164.548
855.315	194.942
855.443	169.885
855.571	166.808
855.699	175.058
855.827	164.587
855.955	165.106
856.083	166.077
856.212	166.644
856.340	173.462
856.468	172.154
856.596	168.942
856.724	172.404
856.852	184.154
856.980	164.096
857.108	163.308
857.237	159.202
857.365	174.038
857.493	170.673
857.621	166.913
857.749	165.740
857.877	164.154
858.005	162.106
858.133	166.990
858.262	161.913
858.390	163.952
858.518	164.683
858.646	169.750
858.774	159.885
858.902	159.942
859.030	166.394
859.158	170.702
859.287	166.269
859.415	169.212
859.543	163.740
859.671	168.837
859.799	176.644
859.927	161.817
860.055	161.010
860.183	158.558
860.312	162.183
860.440	166.827
860.568	160.048
860.696	173.260
860.824	173.923
860.952	163.577
861.080	166.173
861.208	167.288
861.337	162.317
861.465	174.596
861.593	166.712
861.721	171.663
861.849	169.615
861.977	164.548
862.105	167.635
862.233	163.346
862.362	159.942
862.490	161.202
862.618	161.635
862.746	163.279
862.874	170.567
863.002	167.154
863.130	168.913
863.258	167.500
863.387	168.510
863.515	166.115
863.643	171.433
863.771	167.077
863.899	168.635
864.027	167.385
864.155	187.894
864.283	162.875
864.412	162.606
864.540	167.144
864.668	158.279
864.796	161.962
864.924	159.587
865.052	157.952
865.180	180.558
865.308	165.798
865.437	165.269
865.565	159.154
865.693	160.625
865.821	161.856
865.949	181.144
866.077	163.615
866.205	163.125
866.333	168.250
866.462	155.231
866.590	168.846
866.718	163.702
866.846	159.298
866.974	164.413
867.102	158.423
867.230	169.904
867.358	165.385
867.487	169.500
867.615	177.221
867.743	161.471
867.871	169.933
867.999	167.510
868.127	174.000
868.255	178.625
868.383	152.346
868.512	167.365
868.640	162.865
868.768	162.356
868.896	173.250
869.024	159.740
869.152	160.308
869.280	158.000
869.408	157.942
869.537	157.798
869.665	159.010
869.793	163.635
869.921	163.952
870.049	154.442
870.177	162.394
870.305	156.683
870.433	158.337
870.562	165.163
870.690	159.298
870.818	164.721
870.946	158.240
871.074	153.808
871.202	161.192
871.330	154.577
871.458	164.346
871.587	162.538
871.715	162.154
871.843	166.087
871.971	169.038
872.099	154.365
872.227	162.135
872.355	159.519
872.483	158.567
872.612	162.904
872.740	159.221
872.868	159.913
872.996	163.923
873.124	168.337
873.252	159.596
873.380	155.019
873.508	166.827
873.637	168.000
873.765	155.010
873.893	158.510
874.021	160.212
874.149	156.740
874.277	159.894
874.405	164.933
874.533	164.087
874.662	159.952
874.790	165.308
874.918	155.029
875.046	162.346
875.174	157.471
875.302	155.365
875.430	157.990
875.558	163.606
875.687	167.337
875.815	159.740
875.943	165.317
876.071	161.087
876.199	160.096
876.327	163.375
876.455	159.837
876.583	155.942
876.712	165.721
876.840	162.125
876.968	161.519
877.096	160.760
877.224	157.769
877.352	155.202
877.480	163.404
877.608	169.048
877.737	162.731
877.865	156.625
877.993	162.221
878.121	166.087
878.249	162.038
878.377	156.337
878.505	162.394
878.633	160.096
878.762	156.952
878.890	158.750
879.018	163.904
879.146	156.760
879.274	185.769
879.402	164.846
879.530	157.721
879.658	160.654
879.787	161.202
879.915	155.298
880.043	157.173
880.171	191.548
880.299	161.846
880.427	164.798
880.555	157.558
880.683	161.731
880.812	162.115
880.940	159.548
881.068	167.798
881.196	156.433
881.324	155.221
881.452	156.481
881.580	163.962
881.708	167.788
881.837	163.615
881.965	160.394
882.093	153.298
882.221	155.923
882.349	151.125
882.477	159.702
882.605	160.125
882.733	165.981
882.862	156.077
882.990	168.865
883.118	163.644
883.246	166.885
883.374	160.500
883.502	166.490
883.630	164.942
883.758	158.990
883.887	162.635
884.015	160.231
884.143	164.202
884.271	160.856
884.399	153.548
884.527	159.692
884.655	157.846
884.783	163.010
884.912	182.000
885.040	169.942
885.168	154.846
885.296	167.712
885.424	158.817
885.552	161.087
885.680	172.413
885.808	163.856
885.937	168.731
886.065	170.087
886.193	157.250
886.321	159.962
886.449	160.154
886.577	159.577
886.705	169.894
886.833	151.394
886.962	164.163
887.090	162.096
887.218	158.029
887.346	160.337
887.474	158.952
887.602	157.096
887.730	152.000
887.858	155.375
887.987	159.202
888.115	162.019
888.243	157.298
888.371	174.269
888.499	158.817
888.627	158.375
888.755	166.173
888.883	157.221
889.012	163.000
889.140	160.846
889.268	162.183
889.396	151.779
889.524	164.731
889.652	150.452
889.780	157.452
889.908	158.875
890.037	165.010
890.165	160.567
890.293	163.760
890.421	162.885
890.549	154.125
890.677	155.356
890.805	159.462
890.933	156.413
891.062	156.596
891.190	161.712
891.318	155.019
891.446	155.173
891.574	149.962
891.702	157.846
891.830	156.760
891.958	168.663
892.087	163.115
892.215	165.135
892.343	167.327
892.471	164.298
892.599	153.538
892.727	163.712
892.855	179.683
892.983	151.212
893.112	158.538
893.240	167.981
893.368	157.538
893.496	168.154
893.624	164.077
893.752	180.279
893.880	162.529
894.008	162.394
894.137	152.760
894.265	166.625
894.393	157.106
894.521	163.952
894.649	159.827
894.777	154.077
894.905	195.731
895.033	160.865
895.162	159.625
895.290	165.413
895.418	162.692
895.546	193.567
895.674	163.250
895.802	199.558
895.930	163.250
896.058	156.865
896.187	161.337
896.315	156.327
896.443	168.375
896.571	181.135
896.699	160.433
896.827	159.635
896.955	163.337
897.083	160.337
897.212	160.000
897.340	158.202
897.468	161.442
897.596	161.096
897.724	155.962
897.852	154.250
897.980	152.904
898.108	167.269
898.237	161.635
898.365	157.192
898.493	160.337
898.621	157.510
898.749	160.298
898.877	158.298
899.005	159.846
899.133	159.077
899.262	173.288
899.390	157.510
899.518	167.000
899.646	157.615
899.774	152.346
899.902	153.413
900.030	168.644
900.158	159.740
900.287	158.048
900.415	154.817
900.543	164.587
900.671	166.452
900.799	160.288
900.927	157.346
901.055	169.538
901.183	167.394
901.312	166.827
901.440	155.481
901.568	155.923
901.696	154.788
901.824	155.962
901.952	155.817
902.080	165.913
902.208	157.510
902.337	169.115
902.465	157.635
902.593	174.808
902.721	184.298
902.849	176.269
902.977	160.087
903.105	162.923
903.233	162.654
903.362	155.019
903.490	165.683
903.618	159.663
903.746	154.413
903.874	163.163
904.002	159.106
904.130	171.510
904.258	155.038
904.387	165.240
904.515	154.500
904.643	162.644
904.771	156.067
904.899	157.250
905.027	163.923
905.155	158.529
905.283	155.788
905.412	174.635
905.540	162.192
905.668	158.615
905.796	161.375
905.924	157.731
906.052	163.231
906.180	167.067
906.308	159.721
906.437	159.904
906.565	163.404
906.693	169.981
906.821	160.298
906.949	158.058
907.077	154.846
907.205	167.077
907.333	153.913
907.462	156.644
907.590	162.231
907.718	155.981
907.846	164.962
907.974	158.115
908.102	161.298
908.230	163.404
908.358	159.279
908.487	153.346
908.615	167.913
908.743	169.933
908.871	162.096
908.999	155.769
909.127	162.837
909.255	169.673
909.383	157.923
909.512	155.952
909.640	172.808
909.768	158.865
909.896	165.087
910.024	167.288
910.152	169.538
910.280	170.125
910.408	158.837
910.537	158.327
910.665	167.538
910.793	162.942
910.921	165.913
911.049	173.433
911.177	171.135
911.305	160.115
911.433	184.606
911.562	167.317
911.690	165.654
911.818	164.606
911.946	163.000
912.074	168.683
912.202	162.202
912.330	177.462
912.458	157.913
912.587	166.462
912.715	169.510
912.843	179.760
912.971	170.923
913.099	186.462
913.227	177.029
913.355	173.452
913.483	177.423
913.612	175.952
913.740	198.106
913.868	170.606
