90_110_90_Pol_at_750.00nm_cut_at_1179.00Y_01.dat
03.07.2023
11:28:32
cut middle at Y: 1179.00
top cursor: 1231 down cursor: 1127 mean of: 104 lines , 2560 datapoints
wavelength(nm)	intensity[arb. units]
585.996	9471.529
586.124	9276.356
586.252	9256.587
586.380	9290.750
586.508	9318.337
586.637	9413.644
586.765	9373.192
586.893	9410.519
587.021	9437.529
587.149	9424.308
587.277	9462.683
587.405	9458.779
587.533	9505.240
587.662	9578.625
587.790	9490.471
587.918	9525.173
588.046	9508.337
588.174	9541.288
588.302	9528.404
588.430	9546.029
588.558	9556.404
588.687	9565.404
588.815	9551.471
588.943	9579.221
589.071	9544.587
589.199	9559.096
589.327	9548.096
589.455	9612.144
589.583	9584.644
589.712	9576.462
589.840	9551.000
589.968	9561.817
590.096	9569.519
590.224	9569.125
590.352	9607.106
590.480	9555.721
590.608	9545.433
590.737	9583.375
590.865	9663.058
590.993	9561.269
591.121	9556.846
591.249	9556.221
591.377	9546.183
591.505	9682.106
591.633	9563.337
591.762	9583.692
591.890	9564.096
592.018	9663.837
592.146	9579.683
592.274	9594.077
592.402	9577.481
592.530	9774.106
592.658	9667.144
592.787	9682.192
592.915	9707.356
593.043	9595.731
593.171	9638.596
593.299	9686.356
593.427	9674.221
593.555	9657.769
593.683	9707.731
593.812	9689.135
593.940	9707.750
594.068	9755.038
594.196	9718.663
594.324	9793.260
594.452	9969.423
594.580	9826.654
594.708	9864.808
594.837	9854.558
594.965	9919.269
595.093	9892.500
595.221	9955.712
595.349	9940.404
595.477	9956.240
595.605	9989.760
595.733	9979.183
595.862	10024.048
595.990	10016.558
596.118	10038.337
596.246	10123.548
596.374	10043.048
596.502	10083.163
596.630	10116.423
596.758	10078.346
596.887	10098.481
597.015	10103.346
597.143	10121.481
597.271	10115.856
597.399	10186.808
597.527	10138.385
597.655	10130.471
597.783	10172.760
597.912	10168.654
598.040	10172.702
598.168	10159.808
598.296	10116.865
598.424	10338.635
598.552	10104.817
598.680	10149.548
598.808	10198.442
598.937	10184.365
599.065	10165.260
599.193	10211.654
599.321	10193.606
599.449	10145.750
599.577	10137.202
599.705	10160.981
599.833	10170.596
599.962	10086.337
600.090	10163.231
600.218	10151.837
600.346	10129.913
600.474	10117.692
600.602	10105.558
600.730	10087.462
600.858	10128.962
600.987	10208.356
601.115	10134.394
601.243	10232.596
601.371	10234.442
601.499	10199.317
601.627	10205.587
601.755	10178.452
601.883	10232.394
602.012	10132.712
602.140	10234.087
602.268	10217.856
602.396	10372.683
602.524	10219.327
602.652	10343.490
602.780	10340.173
602.908	10338.971
603.037	10428.808
603.165	10430.452
603.293	10408.481
603.421	10436.962
603.549	10448.885
603.677	10487.462
603.805	10488.538
603.933	10547.423
604.062	10581.692
604.190	10646.183
604.318	10655.635
604.446	10627.933
604.574	10739.279
604.702	10774.010
604.830	10678.625
604.958	10744.067
605.087	10798.962
605.215	10854.500
605.343	10936.990
605.471	10915.875
605.599	10913.615
605.727	10997.558
605.855	10973.971
605.983	11020.596
606.112	11063.365
606.240	11042.317
606.368	11055.548
606.496	11051.510
606.624	11131.760
606.752	11087.327
606.880	11184.538
607.008	11149.375
607.137	11108.587
607.265	11253.808
607.393	11183.010
607.521	11275.327
607.649	11175.683
607.777	11183.096
607.905	11224.413
608.033	11178.885
608.162	11217.144
608.290	11208.913
608.418	11300.250
608.546	11258.654
608.674	11331.462
608.802	11209.510
608.930	11208.183
609.058	11170.731
609.187	11174.875
609.315	11209.385
609.443	11153.558
609.571	11293.615
609.699	11138.490
609.827	11268.481
609.955	11174.606
610.083	11144.558
610.212	11120.163
610.340	11117.683
610.468	11105.433
610.596	11115.923
610.724	11099.712
610.852	11136.808
610.980	11120.144
611.108	11062.144
611.237	11067.173
611.365	11099.760
611.493	11091.587
611.621	11078.712
611.749	11089.577
611.877	11168.077
612.005	11097.971
612.133	11152.663
612.262	11169.606
612.390	11208.856
612.518	11226.702
612.646	11126.394
612.774	11211.558
612.902	11230.356
613.030	11212.894
613.158	11188.577
613.287	11323.462
613.415	11173.740
613.543	11227.596
613.671	11255.173
613.799	11287.817
613.927	11296.625
614.055	11338.885
614.183	11346.606
614.312	11347.260
614.440	11482.644
614.568	11418.798
614.696	11445.135
614.824	11413.962
614.952	11491.115
615.080	11523.875
615.208	11533.625
615.337	11650.010
615.465	11545.548
615.593	11621.644
615.721	11604.000
615.849	11699.827
615.977	11649.933
616.105	11690.635
616.233	11690.577
616.362	11760.231
616.490	11706.077
616.618	11759.808
616.746	11886.663
616.874	11848.721
617.002	11863.644
617.130	11852.404
617.258	11870.644
617.387	11877.558
617.515	11891.471
617.643	11873.087
617.771	11971.096
617.899	11899.462
618.027	11976.221
618.155	11990.942
618.283	12003.442
618.412	12002.865
618.540	12106.019
618.668	12019.385
618.796	12042.981
618.924	11992.365
619.052	12059.192
619.180	12033.452
619.308	12024.317
619.437	12030.558
619.565	12044.971
619.693	12003.106
619.821	12057.163
619.949	11988.385
620.077	12049.875
620.205	12086.577
620.333	12087.692
620.462	12008.981
620.590	12067.250
620.718	12040.885
620.846	12101.981
620.974	12085.135
621.102	12123.490
621.230	12106.567
621.358	12236.183
621.487	12059.644
621.615	12093.615
621.743	12028.462
621.871	12125.250
621.999	11992.567
622.127	12077.913
622.255	12038.548
622.383	12020.913
622.512	12006.346
622.640	12032.442
622.768	12067.577
622.896	12132.144
623.024	12065.654
623.152	12045.788
623.280	12150.135
623.408	12045.712
623.537	12067.712
623.665	12031.615
623.793	12067.173
623.921	12100.365
624.049	12079.971
624.177	12047.413
624.305	12041.163
624.433	12083.548
624.562	12085.288
624.690	12210.173
624.818	12027.433
624.946	12047.856
625.074	12037.029
625.202	12008.654
625.330	12048.038
625.458	12137.250
625.587	12023.587
625.715	12100.654
625.843	12067.865
625.971	12074.702
626.099	12078.769
626.227	12094.567
626.355	12035.654
626.483	12164.154
626.612	12091.875
626.740	12093.106
626.868	12086.510
626.996	12157.606
627.124	12120.231
627.252	12080.250
627.380	12113.115
627.508	12059.673
627.637	12126.404
627.765	12123.067
627.893	12200.913
628.021	12243.298
628.149	12151.192
628.277	12239.260
628.405	12199.154
628.533	12179.115
628.662	12198.750
628.790	12311.894
628.918	12236.558
629.046	12360.740
629.174	12226.635
629.302	12285.538
629.430	12220.019
629.558	12306.635
629.687	12247.452
629.815	12308.952
629.943	12408.096
630.071	12366.837
630.199	12356.721
630.327	12408.058
630.455	12428.894
630.583	12420.721
630.712	12435.923
630.840	12472.538
630.968	12482.000
631.096	12413.567
631.224	12465.010
631.352	12595.702
631.480	12531.337
631.608	12676.894
631.737	12491.490
631.865	12603.115
631.993	12627.192
632.121	12747.260
632.249	12622.500
632.377	12603.596
632.505	12575.269
632.633	12646.971
632.762	12572.029
632.890	12631.308
633.018	12616.077
633.146	12597.683
633.274	12601.279
633.402	12638.442
633.530	12564.558
633.658	12593.240
633.787	12591.192
633.915	12568.740
634.043	12586.510
634.171	12630.067
634.299	12612.962
634.427	12593.731
634.555	12834.875
634.683	12600.750
634.812	12586.577
634.940	12547.404
635.068	12548.558
635.196	12534.731
635.324	12522.269
635.452	12557.750
635.580	12617.750
635.708	12499.067
635.837	12523.875
635.965	12498.558
636.093	12486.317
636.221	12472.308
636.349	12361.260
636.477	12371.298
636.605	12437.490
636.733	12356.337
636.862	12367.115
636.990	12368.144
637.118	12344.346
637.246	12285.240
637.374	12427.712
637.502	12266.663
637.630	12252.260
637.758	12259.462
637.887	12176.154
638.015	12318.375
638.143	12243.000
638.271	12124.500
638.399	12175.644
638.527	12093.356
638.655	12140.846
638.783	12103.692
638.912	12172.798
639.040	12064.798
639.168	12038.192
639.296	12013.760
639.424	12086.087
639.552	12052.212
639.680	12085.635
639.808	12037.163
639.937	11985.240
640.065	11969.779
640.193	11955.087
640.321	12103.721
640.449	12001.365
640.577	11939.663
640.705	11991.413
640.833	11990.192
640.962	12066.933
641.090	11942.125
641.218	11987.923
641.346	12072.385
641.474	11989.077
641.602	11965.385
641.730	11931.288
641.858	11941.846
641.987	11935.798
642.115	12133.654
642.243	11985.077
642.371	12147.365
642.499	11968.760
642.627	12069.058
642.755	11967.596
642.883	11984.615
643.012	12009.654
643.140	12055.894
643.268	12067.125
643.396	11989.077
643.524	12037.923
643.652	12127.875
643.780	12039.413
643.908	11997.808
644.037	12152.442
644.165	12110.558
644.293	12221.413
644.421	12006.077
644.549	12113.154
644.677	12145.788
644.805	12046.837
644.933	12057.635
645.062	12073.048
645.190	12241.000
645.318	12121.269
645.446	12083.481
645.574	12070.058
645.702	12118.769
645.830	12109.683
645.958	12075.375
646.087	12060.644
646.215	12032.702
646.343	12011.010
646.471	12237.452
646.599	12065.490
646.727	12034.308
646.855	12055.288
646.983	12028.548
647.112	12125.952
647.240	12033.587
647.368	12126.000
647.496	12052.163
647.624	12050.173
647.752	12035.558
647.880	11999.462
648.008	12034.981
648.137	12045.356
648.265	11986.952
648.393	12087.010
648.521	11966.029
648.649	12102.317
648.777	12049.721
648.905	11989.548
649.033	12053.337
649.162	11940.308
649.290	11872.894
649.418	11898.135
649.546	12090.154
649.674	11890.452
649.802	11859.827
649.930	11802.644
650.058	11796.212
650.187	11871.635
650.315	11821.779
650.443	11819.000
650.571	11766.067
650.699	11719.404
650.827	11738.029
650.955	11724.808
651.083	11792.856
651.212	11647.192
651.340	11706.288
651.468	11638.952
651.596	11641.394
651.724	11698.337
651.852	11627.471
651.980	11602.606
652.108	11583.865
652.237	11597.337
652.365	11550.875
652.493	11506.404
652.621	11510.019
652.749	11538.269
652.877	11498.221
653.005	11521.317
653.133	11460.663
653.262	11410.635
653.390	11393.663
653.518	11548.635
653.646	11401.173
653.774	11361.279
653.902	11473.712
654.030	11430.721
654.158	11346.663
654.287	11377.433
654.415	11368.077
654.543	11352.865
654.671	11294.423
654.799	11294.971
654.927	11264.692
655.055	11213.798
655.183	11267.769
655.312	11252.683
655.440	11211.375
655.568	11221.038
655.696	11275.288
655.824	11226.510
655.952	11197.192
656.080	11176.490
656.208	11165.452
656.337	11188.404
656.465	11353.125
656.593	11123.885
656.721	11191.240
656.849	11229.981
656.977	10997.519
657.105	11072.000
657.233	11106.933
657.362	11159.173
657.490	11082.240
657.618	11039.827
657.746	11035.115
657.874	10969.365
658.002	10980.212
658.130	10926.279
658.258	10911.923
658.387	10891.712
658.515	10862.404
658.643	10836.202
658.771	10953.740
658.899	10818.183
659.027	10831.673
659.155	10837.731
659.283	10809.337
659.412	10815.519
659.540	10798.875
659.668	10829.183
659.796	10855.837
659.924	10819.692
660.052	10926.356
660.180	10827.183
660.308	10868.125
660.437	10848.173
660.565	10788.481
660.693	10753.365
660.821	10916.577
660.949	10726.327
661.077	10725.606
661.205	10902.490
661.333	10696.231
661.462	10636.817
661.590	10774.904
661.718	10701.106
661.846	10707.875
661.974	10662.308
662.102	10642.413
662.230	10674.442
662.358	10565.423
662.487	10625.529
662.615	10606.231
662.743	10638.154
662.871	10595.308
662.999	10524.548
663.127	10553.788
663.255	10546.827
663.383	10650.952
663.512	10482.135
663.640	10546.144
663.768	10554.000
663.896	10499.413
664.024	10528.615
664.152	10468.423
664.280	10554.087
664.408	10479.885
664.537	10460.269
664.665	10456.529
664.793	10476.538
664.921	10419.654
665.049	10510.404
665.177	10433.971
665.305	10467.587
665.433	10434.365
665.562	10589.202
665.690	10440.952
665.818	10568.827
665.946	10393.125
666.074	10407.808
666.202	10375.375
666.330	10353.087
666.458	10775.308
666.587	10330.029
666.715	10379.490
666.843	10340.769
666.971	10392.827
667.099	10363.529
667.227	10409.865
667.355	10428.183
667.483	10336.548
667.612	10373.038
667.740	10334.317
667.868	10320.058
667.996	10289.135
668.124	10353.462
668.252	10403.596
668.380	10289.385
668.508	10333.952
668.637	10279.760
668.765	10320.904
668.893	10304.413
669.021	10205.663
669.149	10295.192
669.277	10191.904
669.405	10335.337
669.533	10315.202
669.662	10229.000
669.790	10209.846
669.918	10242.548
670.046	10357.788
670.174	10163.817
670.302	10151.606
670.430	10139.077
670.558	10178.913
670.687	10304.462
670.815	10102.163
670.943	10173.769
671.071	10073.885
671.199	10063.481
671.327	10098.625
671.455	10120.144
671.583	10034.067
671.712	10052.288
671.840	10059.010
671.968	10182.394
672.096	10153.452
672.224	9953.644
672.352	9953.567
672.480	9890.356
672.608	9963.538
672.737	9925.346
672.865	9866.067
672.993	9901.337
673.121	9857.596
673.249	9825.298
673.377	9807.615
673.505	9769.462
673.633	9856.452
673.762	9778.702
673.890	9765.212
674.018	9793.010
674.146	9709.010
674.274	9696.606
674.402	9756.087
674.530	9718.298
674.658	9652.250
674.787	9627.894
674.915	9782.452
675.043	9640.462
675.171	9624.577
675.299	9573.202
675.427	9536.510
675.555	9567.798
675.683	9539.962
675.812	9485.952
675.940	9494.731
676.068	9429.923
676.196	9511.529
676.324	9394.615
676.452	9354.087
676.580	9344.654
676.708	9352.856
676.837	9333.221
676.965	9405.981
677.093	9453.971
677.221	9326.827
677.349	9254.673
677.477	9356.702
677.605	9229.981
677.733	9207.452
677.862	9198.375
677.990	9204.087
678.118	9247.192
678.246	9136.769
678.374	9219.644
678.502	9130.740
678.630	9102.587
678.758	9125.615
678.887	9207.846
679.015	9000.202
679.143	8992.337
679.271	9007.144
679.399	8997.971
679.527	8976.865
679.655	9049.875
679.783	8938.942
679.912	8915.731
680.040	9093.308
680.168	8881.808
680.296	8924.212
680.424	8869.144
680.552	8844.019
680.680	8867.481
680.808	8817.510
680.937	8779.567
681.065	8834.846
681.193	8780.750
681.321	8740.346
681.449	8801.894
681.577	8750.173
681.705	8728.337
681.833	8756.471
681.962	8740.894
682.090	8709.740
682.218	8719.990
682.346	8704.731
682.474	8633.510
682.602	8649.000
682.730	8673.135
682.858	8623.913
682.987	8632.221
683.115	8674.077
683.243	8639.317
683.371	8613.337
683.499	8588.529
683.627	8628.942
683.755	8594.500
683.883	8553.423
684.012	8605.913
684.140	8553.298
684.268	8549.644
684.396	8595.615
684.524	8536.288
684.652	8577.731
684.780	8537.817
684.908	8565.087
685.037	8553.260
685.165	8531.865
685.293	8620.510
685.421	8539.337
685.549	8527.740
685.677	8481.317
685.805	8533.933
685.933	8493.240
686.062	8494.962
686.190	8458.692
686.318	8451.942
686.446	8437.538
686.574	8414.731
686.702	8491.779
686.830	8395.625
686.958	8460.740
687.087	8366.817
687.215	8402.913
687.343	8368.250
687.471	8506.577
687.599	8317.981
687.727	8335.500
687.855	8292.904
687.983	8299.827
688.112	8319.029
688.240	8313.125
688.368	8317.115
688.496	8265.981
688.624	8230.750
688.752	8375.760
688.880	8240.010
689.008	8236.471
689.137	8210.375
689.265	8207.981
689.393	8181.913
689.521	8159.567
689.649	8266.106
689.777	8179.067
689.905	8230.221
690.033	8116.375
690.162	8098.365
690.290	8130.635
690.418	8065.740
690.546	8137.010
690.674	8129.923
690.802	8095.538
690.930	8084.875
691.058	8043.606
691.187	8009.721
691.315	8005.683
691.443	7957.913
691.571	7970.673
691.699	7967.346
691.827	7920.125
691.955	7926.587
692.083	7911.173
692.212	7913.962
692.340	7895.250
692.468	7938.019
692.596	7914.173
692.724	7834.846
692.852	7893.471
692.980	7838.327
693.108	7894.692
693.237	7815.538
693.365	7778.471
693.493	7769.240
693.621	7759.260
693.749	7703.346
693.877	7778.346
694.005	7705.279
694.133	7675.481
694.262	7707.760
694.390	7621.913
694.518	7625.663
694.646	7648.548
694.774	7551.462
694.902	7554.221
695.030	7568.058
695.158	7553.529
695.287	7517.077
695.415	7510.702
695.543	7493.442
695.671	7437.471
695.799	7574.558
695.927	7458.240
696.055	7488.048
696.183	7368.923
696.312	7575.308
696.440	7414.067
696.568	7402.173
696.696	7274.394
696.824	7282.558
696.952	7261.779
697.080	7294.808
697.208	7208.394
697.337	7232.615
697.465	7207.317
697.593	7179.038
697.721	7264.308
697.849	7131.240
697.977	7186.923
698.105	7217.635
698.233	7136.865
698.362	7114.250
698.490	7202.933
698.618	7022.462
698.746	7033.779
698.874	7085.837
699.002	7022.673
699.130	7066.635
699.258	6978.615
699.387	6903.865
699.515	6981.212
699.643	6968.962
699.771	7037.183
699.899	6889.923
700.027	6858.394
700.155	6909.798
700.283	6795.212
700.412	6829.183
700.540	6848.962
700.668	6884.644
700.796	6771.587
700.924	6786.202
701.052	6805.702
701.180	6791.837
701.308	6712.231
701.437	6652.106
701.565	6646.077
701.693	6716.087
701.821	6828.087
701.949	6583.106
702.077	6598.183
702.205	6654.317
702.333	6568.904
702.462	6516.654
702.590	6575.250
702.718	6499.750
702.846	6665.644
702.974	6442.317
703.102	6426.019
703.230	6474.952
703.358	6370.135
703.487	6388.240
703.615	6362.635
703.743	6352.202
703.871	6332.971
703.999	6307.365
704.127	6278.173
704.255	6275.865
704.383	6293.933
704.512	6306.433
704.640	6284.067
704.768	6307.712
704.896	6180.462
705.024	6121.260
705.152	6182.856
705.280	6200.606
705.408	6100.587
705.537	6060.490
705.665	6084.356
705.793	6053.038
705.921	6036.712
706.049	5985.923
706.177	6055.356
706.305	5961.048
706.433	5991.144
706.562	5973.481
706.690	5975.308
706.818	5937.058
706.946	5885.952
707.074	5845.760
707.202	5827.125
707.330	5841.760
707.458	5792.067
707.587	5776.760
707.715	5785.721
707.843	5808.221
707.971	5782.635
708.099	5691.269
708.227	5702.192
708.355	5709.538
708.483	5687.067
708.612	5691.115
708.740	5643.798
708.868	5613.625
708.996	5661.750
709.124	5645.519
709.252	5581.452
709.380	5602.019
709.508	5545.231
709.637	5566.077
709.765	5531.183
709.893	5560.346
710.021	5471.837
710.149	5564.163
710.277	5436.125
710.405	5456.529
710.533	5434.769
710.662	5440.250
710.790	5522.192
710.918	5379.317
711.046	5424.538
711.174	5361.019
711.302	5379.346
711.430	5360.337
711.558	5368.471
711.687	5346.779
711.815	5283.577
711.943	5279.519
712.071	5269.433
712.199	5292.673
712.327	5324.856
712.455	5205.558
712.583	5372.837
712.712	5228.654
712.840	5254.212
712.968	5188.760
713.096	5186.894
713.224	5154.731
713.352	5133.923
713.480	5098.923
713.608	5086.173
713.737	5082.750
713.865	5126.721
713.993	5073.260
714.121	5064.452
714.249	5011.202
714.377	5026.375
714.505	5005.885
714.633	5010.817
714.762	4968.971
714.890	4967.481
715.018	4962.279
715.146	4987.500
715.274	4921.788
715.402	4914.394
715.530	4902.587
715.658	4937.433
715.787	4885.615
715.915	4990.288
716.043	4845.000
716.171	4978.788
716.299	4800.856
716.427	4879.673
716.555	4799.519
716.683	4778.327
716.812	4748.019
716.940	4766.529
717.068	4722.298
717.196	4869.933
717.324	4745.904
717.452	4721.846
717.580	4747.663
717.708	4660.750
717.837	4689.654
717.965	4703.404
718.093	4655.029
718.221	4685.769
718.349	4677.404
718.477	4602.269
718.605	4668.702
718.733	4592.288
718.862	4631.019
718.990	4526.558
719.118	4598.298
719.246	4502.952
719.374	4504.990
719.502	4532.125
719.630	4614.712
719.758	4472.192
719.887	4444.365
720.015	4464.942
720.143	4500.183
720.271	4380.913
720.399	4442.279
720.527	4394.885
720.655	4464.481
720.783	4359.808
720.912	4304.740
721.040	4339.981
721.168	4350.692
721.296	4263.135
721.424	4293.038
721.552	4255.462
721.680	4296.087
721.808	4266.067
721.937	4242.519
722.065	4268.740
722.193	4202.846
722.321	4195.442
722.449	4182.683
722.577	4143.385
722.705	4113.615
722.833	4121.327
722.962	4132.038
723.090	4074.913
723.218	4076.837
723.346	4102.596
723.474	4036.048
723.602	4006.096
723.730	3982.231
723.858	3975.923
723.987	3987.846
724.115	3964.990
724.243	3982.240
724.371	3938.192
724.499	3915.010
724.627	3905.875
724.755	3863.712
724.883	3946.885
725.012	4003.067
725.140	3892.029
725.268	3835.558
725.396	3854.125
725.524	3912.029
725.652	3781.663
725.780	3865.423
725.908	3762.385
726.037	3762.154
726.165	3753.712
726.293	3710.817
726.421	3708.394
726.549	3723.885
726.677	3695.481
726.805	3636.654
726.933	3670.250
727.062	3611.010
727.190	3600.894
727.318	3586.548
727.446	3580.019
727.574	3548.808
727.702	3540.260
727.830	3563.442
727.958	3533.115
728.087	3582.683
728.215	3600.202
728.343	3495.385
728.471	3497.269
728.599	3575.635
728.727	3448.625
728.855	3436.308
728.983	3394.952
729.112	3416.740
729.240	3400.923
729.368	3369.154
729.496	3378.740
729.624	3384.096
729.752	3314.462
729.880	3312.462
730.008	3318.260
730.137	3319.837
730.265	3297.904
730.393	3421.087
730.521	3381.038
730.649	3242.942
730.777	3215.644
730.905	3229.952
731.033	3184.135
731.162	3279.567
731.290	3261.827
731.418	3181.971
731.546	3159.731
731.674	3169.962
731.802	3133.019
731.930	3214.865
732.058	3204.067
732.187	3137.356
732.315	3130.019
732.443	3198.875
732.571	3120.817
732.699	3090.885
732.827	3110.769
732.955	3035.817
733.083	3024.538
733.212	3053.471
733.340	3006.856
733.468	3003.731
733.596	2999.885
733.724	2980.000
733.852	2989.125
733.980	2986.923
734.108	3096.894
734.237	2962.279
734.365	2933.490
734.493	2925.183
734.621	2910.933
734.749	2917.644
734.877	2916.010
735.005	2924.038
735.133	2875.077
735.262	2945.567
735.390	2849.163
735.518	2847.923
735.646	2916.596
735.774	2885.981
735.902	2898.558
736.030	2804.317
736.158	2810.538
736.287	2825.337
736.415	2804.250
736.543	2794.038
736.671	2765.990
736.799	2783.942
736.927	2749.413
737.055	2838.750
737.183	2713.644
737.312	2712.365
737.440	2722.019
737.568	2780.260
737.696	2769.115
737.824	2698.298
737.952	2922.317
738.080	2661.452
738.208	2705.644
738.337	2656.500
738.465	2670.625
738.593	2651.663
738.721	2633.327
738.849	2687.490
738.977	2620.183
739.105	2626.827
739.233	2596.721
739.362	2556.846
739.490	2570.788
739.618	2622.798
739.746	2602.298
739.874	2556.385
740.002	2564.019
740.130	2542.615
740.258	2494.596
740.387	2550.413
740.515	2492.192
740.643	2525.654
740.771	2564.260
740.899	2473.837
741.027	2448.635
741.155	2446.942
741.283	2437.442
741.412	2520.077
741.540	2461.683
741.668	2460.048
741.796	2507.144
741.924	2416.135
742.052	2515.452
742.180	2414.740
742.308	2383.173
742.437	2405.846
742.565	2383.144
742.693	2450.019
742.821	2364.875
742.949	2338.404
743.077	2371.433
743.205	2317.606
743.333	2332.385
743.462	2345.933
743.590	2310.721
743.718	2345.240
743.846	2298.327
743.974	2345.365
744.102	2286.846
744.230	2298.663
744.358	2291.183
744.487	2270.163
744.615	2249.087
744.743	2269.904
744.871	2266.596
744.999	2264.038
745.127	2233.721
745.255	2220.231
745.383	2240.587
745.512	2204.019
745.640	2200.625
745.768	2214.962
745.896	2206.606
746.024	2188.740
746.152	2193.529
746.280	2184.990
746.408	2176.212
746.537	2167.192
746.665	2166.615
746.793	2134.038
746.921	2136.221
747.049	2126.481
747.177	2099.519
747.305	2135.192
747.433	2101.192
747.562	2093.346
747.690	2099.375
747.818	2080.933
747.946	2069.808
748.074	2054.163
748.202	2060.635
748.330	2035.394
748.458	2034.635
748.587	2035.346
748.715	2036.308
748.843	1995.394
748.971	1986.644
749.099	2014.038
749.227	1997.663
749.355	2000.596
749.483	1954.990
749.612	1975.788
749.740	1961.144
749.868	1944.067
749.996	1950.731
750.124	1944.683
750.252	1918.250
750.380	1930.798
750.508	1917.894
750.637	1896.096
750.765	1907.933
750.893	1880.587
751.021	1873.817
751.149	1884.837
751.277	1853.558
751.405	1841.654
751.533	1868.163
751.662	1824.327
751.790	1814.029
751.918	1814.125
752.046	1801.683
752.174	1799.038
752.302	1780.154
752.430	1766.433
752.558	1758.865
752.687	1766.298
752.815	1755.827
752.943	1750.606
753.071	1741.413
753.199	1748.683
753.327	1742.337
753.455	1710.250
753.583	1683.635
753.712	1683.933
753.840	1696.327
753.968	1678.481
754.096	1681.048
754.224	1674.865
754.352	1646.740
754.480	1669.260
754.608	1641.846
754.737	1636.654
754.865	1627.250
754.993	1625.163
755.121	1602.558
755.249	1588.788
755.377	1582.087
755.505	1586.837
755.633	1575.981
755.762	1561.308
755.890	1557.817
756.018	1554.490
756.146	1537.904
756.274	1525.192
756.402	1520.558
756.530	1546.106
756.658	1523.817
756.787	1484.308
756.915	1489.558
757.043	1477.038
757.171	1481.846
757.299	1477.404
757.427	1441.625
757.555	1448.683
757.683	1449.481
757.812	1445.510
757.940	1427.135
758.068	1421.663
758.196	1412.500
758.324	1409.115
758.452	1410.087
758.580	1397.827
758.708	1382.010
758.837	1396.154
758.965	1393.038
759.093	1378.856
759.221	1343.558
759.349	1338.990
759.477	1346.952
759.605	1315.240
759.733	1342.173
759.862	1313.837
759.990	1313.029
760.118	1304.856
760.246	1308.394
760.374	1304.760
760.502	1285.529
760.630	1272.635
760.758	1271.827
760.887	1256.885
761.015	1247.471
761.143	1254.567
761.271	1242.481
761.399	1233.452
761.527	1240.029
761.655	1242.587
761.783	1208.269
761.912	1221.058
762.040	1210.837
762.168	1201.846
762.296	1187.779
762.424	1188.567
762.552	1185.221
762.680	1163.548
762.808	1189.317
762.937	1165.048
763.065	1141.202
763.193	1136.577
763.321	1130.452
763.449	1120.788
763.577	1101.933
763.705	1126.067
763.833	1122.519
763.962	1106.154
764.090	1094.404
764.218	1087.635
764.346	1078.885
764.474	1085.058
764.602	1074.087
764.730	1080.240
764.858	1063.721
764.987	1060.683
765.115	1057.933
765.243	1030.067
765.371	1038.106
765.499	1037.731
765.627	1035.529
765.755	1028.106
765.883	1019.029
766.012	1006.625
766.140	1002.808
766.268	998.760
766.396	995.490
766.524	992.452
766.652	975.308
766.780	979.731
766.908	980.702
767.037	983.913
767.165	962.260
767.293	967.163
767.421	965.990
767.549	935.837
767.677	971.567
767.805	939.837
767.933	944.587
768.062	934.923
768.190	925.760
768.318	927.212
768.446	911.038
768.574	917.260
768.702	914.394
768.830	913.587
768.958	897.740
769.087	913.385
769.215	892.000
769.343	887.798
769.471	900.192
769.599	885.529
769.727	878.346
769.855	873.971
769.983	896.635
770.112	870.788
770.240	853.173
770.368	843.125
770.496	836.058
770.624	854.269
770.752	844.087
770.880	847.683
771.008	836.308
771.137	832.212
771.265	820.846
771.393	816.087
771.521	817.731
771.649	826.952
771.777	841.740
771.905	854.875
772.033	839.577
772.162	798.404
772.290	792.250
772.418	803.952
772.546	787.875
772.674	790.798
772.802	787.375
772.930	787.529
773.058	770.712
773.187	775.106
773.315	770.538
773.443	780.067
773.571	771.856
773.699	759.875
773.827	762.548
773.955	780.250
774.083	755.202
774.212	745.760
774.340	754.596
774.468	738.077
774.596	745.000
774.724	748.577
774.852	747.087
774.980	727.596
775.108	721.058
775.237	713.067
775.365	718.837
775.493	728.567
775.621	716.971
775.749	713.404
775.877	727.913
776.005	716.231
776.133	700.481
776.262	699.587
776.390	697.231
776.518	689.567
776.646	694.135
776.774	691.279
776.902	681.750
777.030	674.990
777.158	675.635
777.287	690.010
777.415	673.798
777.543	671.808
777.671	674.558
777.799	666.308
777.927	661.779
778.055	661.019
778.183	655.731
778.312	649.029
778.440	643.115
778.568	660.808
778.696	658.048
778.824	647.635
778.952	648.000
779.080	638.288
779.208	641.010
779.337	632.077
779.465	639.846
779.593	623.808
779.721	632.404
779.849	622.462
779.977	615.471
780.105	618.298
780.233	618.837
780.362	612.760
780.490	599.038
780.618	605.529
780.746	598.952
780.874	597.135
781.002	600.231
781.130	595.327
781.258	595.221
781.387	597.606
781.515	582.923
781.643	579.202
781.771	583.481
781.899	587.087
782.027	579.096
782.155	575.808
782.283	567.433
782.412	575.471
782.540	574.087
782.668	569.663
782.796	559.692
782.924	568.942
783.052	566.029
783.180	554.606
783.308	557.212
783.437	549.779
783.565	560.394
783.693	554.615
783.821	549.644
783.949	546.981
784.077	536.221
784.205	545.933
784.333	538.135
784.462	533.788
784.590	529.644
784.718	518.817
784.846	530.740
784.974	538.471
785.102	517.750
785.230	521.452
785.358	513.365
785.487	514.260
785.615	504.683
785.743	515.894
785.871	516.115
785.999	522.452
786.127	516.433
786.255	496.990
786.383	492.250
786.512	501.135
786.640	495.404
786.768	484.721
786.896	493.029
787.024	480.327
787.152	491.500
787.280	504.481
787.408	485.240
787.537	494.913
787.665	490.260
787.793	475.779
787.921	476.000
788.049	470.346
788.177	479.644
788.305	470.587
788.433	471.904
788.562	468.538
788.690	464.298
788.818	462.192
788.946	456.096
789.074	461.548
789.202	451.769
789.330	455.087
789.458	455.019
789.587	441.760
789.715	456.288
789.843	452.990
789.971	448.019
790.099	436.356
790.227	437.577
790.355	436.712
790.483	440.817
790.612	440.971
790.740	441.212
790.868	427.712
790.996	445.962
791.124	446.577
791.252	434.173
791.380	421.529
791.508	428.490
791.637	430.240
791.765	417.510
791.893	422.673
792.021	424.154
792.149	416.635
792.277	419.808
792.405	411.721
792.533	423.231
792.662	418.115
792.790	406.567
792.918	417.279
793.046	399.740
793.174	402.548
793.302	399.904
793.430	398.269
793.558	409.644
793.687	399.413
793.815	389.481
793.943	410.087
794.071	389.923
794.199	390.500
794.327	394.673
794.455	396.519
794.583	394.798
794.712	389.712
794.840	382.760
794.968	391.779
795.096	389.404
795.224	368.519
795.352	417.221
795.480	368.115
795.608	370.596
795.737	370.029
795.865	368.529
795.993	371.490
796.121	363.981
796.249	368.375
796.377	367.173
796.505	367.654
796.633	364.865
796.762	357.510
796.890	360.010
797.018	355.635
797.146	367.010
797.274	362.875
797.402	354.240
797.530	346.317
797.658	350.135
797.787	359.135
797.915	353.673
798.043	347.519
798.171	347.856
798.299	342.942
798.427	348.625
798.555	359.288
798.683	338.135
798.812	368.481
798.940	386.115
799.068	372.606
799.196	349.365
799.324	344.250
799.452	329.712
799.580	331.558
799.708	332.413
799.837	333.077
799.965	329.375
800.093	323.923
800.221	322.481
800.349	324.385
800.477	322.298
800.605	324.202
800.733	332.067
800.862	325.894
800.990	317.567
801.118	317.885
801.246	319.115
801.374	323.538
801.502	315.971
801.630	313.298
801.758	315.279
801.887	310.452
802.015	314.154
802.143	302.692
802.271	311.106
802.399	303.538
802.527	294.413
802.655	308.308
802.783	302.000
802.912	300.702
803.040	296.010
803.168	297.875
803.296	303.913
803.424	296.240
803.552	300.500
803.680	297.971
803.808	297.058
803.937	292.981
804.065	299.971
804.193	295.904
804.321	310.462
804.449	306.115
804.577	300.865
804.705	310.808
804.833	291.048
804.962	285.087
805.090	287.875
805.218	289.010
805.346	284.058
805.474	296.904
805.602	292.173
805.730	298.365
805.858	277.596
805.987	279.769
806.115	281.135
806.243	283.048
806.371	279.413
806.499	279.577
806.627	274.971
806.755	277.202
806.883	272.971
807.012	272.115
807.140	273.990
807.268	268.346
807.396	278.163
807.524	271.394
807.652	279.933
807.780	271.115
807.908	270.288
808.037	286.452
808.165	278.067
808.293	261.394
808.421	264.038
808.549	263.346
808.677	264.000
808.805	280.087
808.933	268.356
809.062	265.048
809.190	275.731
809.318	270.712
809.446	260.048
809.574	273.952
809.702	257.692
809.830	256.596
809.958	269.154
810.087	263.298
810.215	258.375
810.343	264.529
810.471	256.837
810.599	250.548
810.727	257.106
810.855	248.788
810.983	256.827
811.112	254.644
811.240	249.125
811.368	250.375
811.496	253.385
811.624	251.990
811.752	249.529
811.880	264.654
812.008	258.019
812.137	264.337
812.265	250.712
812.393	251.846
812.521	236.865
812.649	253.029
812.777	243.202
812.905	252.058
813.033	255.327
813.162	244.240
813.290	243.250
813.418	244.058
813.546	239.721
813.674	238.875
813.802	240.596
813.930	238.260
814.058	235.923
814.187	240.135
814.315	237.404
814.443	236.163
814.571	238.423
814.699	229.471
814.827	237.452
814.955	236.481
815.083	232.317
815.212	240.394
815.340	233.471
815.468	239.365
815.596	231.952
815.724	234.442
815.852	239.240
815.980	233.048
816.108	231.077
816.237	233.221
816.365	243.192
816.493	237.269
816.621	238.346
816.749	226.221
816.877	289.125
817.005	244.740
817.133	231.865
817.262	232.452
817.390	223.135
817.518	230.894
817.646	218.654
817.774	218.221
817.902	215.635
818.030	219.558
818.158	231.423
818.287	224.606
818.415	222.471
818.543	217.385
818.671	226.087
818.799	217.173
818.927	216.260
819.055	240.885
819.183	222.913
819.312	238.519
819.440	220.519
819.568	212.471
819.696	216.981
819.824	216.894
819.952	217.317
820.080	218.923
820.208	213.442
820.337	218.587
820.465	216.750
820.593	213.442
820.721	218.490
820.849	217.452
820.977	215.048
821.105	218.663
821.233	205.462
821.362	217.029
821.490	205.837
821.618	215.587
821.746	217.644
821.874	211.375
822.002	200.010
822.130	208.538
822.258	213.856
822.387	204.404
822.515	212.798
822.643	210.827
822.771	203.144
822.899	210.644
823.027	201.769
823.155	211.404
823.283	218.317
823.412	216.240
823.540	201.750
823.668	201.952
823.796	208.837
823.924	201.702
824.052	204.913
824.180	208.500
824.308	200.279
824.437	216.423
824.565	209.875
824.693	195.365
824.821	196.933
824.949	207.962
825.077	205.673
825.205	198.135
825.333	198.327
825.462	206.837
825.590	197.067
825.718	197.808
825.846	199.548
825.974	201.202
826.102	196.433
826.230	201.808
826.358	205.942
826.487	200.192
826.615	197.740
826.743	186.971
826.871	203.846
826.999	193.067
827.127	198.510
827.255	197.846
827.383	193.798
827.512	189.096
827.640	197.760
827.768	212.933
827.896	187.519
828.024	200.096
828.152	188.327
828.280	199.019
828.408	190.490
828.537	195.894
828.665	190.413
828.793	194.327
828.921	189.058
829.049	194.279
829.177	192.404
829.305	188.683
829.433	190.798
829.562	186.587
829.690	189.971
829.818	193.442
829.946	189.913
830.074	186.885
830.202	183.615
830.330	191.827
830.458	179.269
830.587	194.048
830.715	185.423
830.843	180.000
830.971	191.269
831.099	184.077
831.227	214.731
831.355	186.058
831.483	187.827
831.612	185.692
831.740	182.471
831.868	186.356
831.996	192.000
832.124	185.365
832.252	189.471
832.380	186.471
832.508	185.981
832.637	183.192
832.765	189.048
832.893	186.346
833.021	179.779
833.149	179.865
833.277	186.442
833.405	189.625
833.533	180.048
833.662	187.846
833.790	180.115
833.918	186.048
834.046	180.663
834.174	178.308
834.302	184.644
834.430	175.192
834.558	178.769
834.687	187.635
834.815	181.779
834.943	177.221
835.071	183.731
835.199	184.923
835.327	180.577
835.455	185.558
835.583	176.865
835.712	179.269
835.840	183.904
835.968	176.077
836.096	185.596
836.224	179.558
836.352	182.663
836.480	176.644
836.608	174.837
836.737	177.731
836.865	174.288
836.993	181.692
837.121	188.096
837.249	183.712
837.377	174.202
837.505	170.894
837.633	177.731
837.762	180.683
837.890	177.279
838.018	177.221
838.146	173.817
838.274	174.385
838.402	174.096
838.530	188.029
838.658	178.442
838.787	184.298
838.915	173.212
839.043	185.212
839.171	173.385
839.299	179.971
839.427	195.548
839.555	183.327
839.683	172.346
839.812	173.365
839.940	170.827
840.068	174.827
840.196	198.058
840.324	194.173
840.452	181.971
840.580	172.846
840.708	166.404
840.837	172.827
840.965	173.423
841.093	166.625
841.221	174.279
841.349	168.846
841.477	167.865
841.605	169.577
841.733	171.481
841.862	179.981
841.990	174.817
842.118	174.000
842.246	175.904
842.374	166.846
842.502	178.087
842.630	171.750
842.758	168.500
842.887	178.712
843.015	185.769
843.143	169.154
843.271	170.606
843.399	170.587
843.527	172.212
843.655	166.135
843.783	167.173
843.912	164.010
844.040	163.077
844.168	170.654
844.296	181.731
844.424	172.538
844.552	174.173
844.680	171.058
844.808	168.663
844.937	168.144
845.065	168.462
845.193	185.721
845.321	170.798
845.449	178.875
845.577	174.298
845.705	165.913
845.833	166.327
845.962	171.856
846.090	166.750
846.218	179.327
846.346	176.788
846.474	168.183
846.602	163.375
846.730	169.385
846.858	167.173
846.987	164.212
847.115	176.452
847.243	175.923
847.371	158.077
847.499	166.990
847.627	166.375
847.755	166.308
847.883	175.663
848.012	178.125
848.140	161.288
848.268	166.317
848.396	165.577
848.524	177.673
848.652	164.721
848.780	164.952
848.908	167.587
849.037	167.288
849.165	164.000
849.293	170.135
849.421	165.962
849.549	165.788
849.677	165.760
849.805	172.692
849.933	162.788
850.062	168.327
850.190	168.019
850.318	164.163
850.446	166.471
850.574	167.019
850.702	169.029
850.830	159.702
850.958	164.538
851.087	168.837
851.215	160.587
851.343	166.317
851.471	167.587
851.599	169.615
851.727	177.365
851.855	165.923
851.983	171.481
852.112	163.942
852.240	172.125
852.368	175.212
852.496	163.962
852.624	165.500
852.752	170.683
852.880	168.365
853.008	166.433
853.137	168.962
853.265	170.490
853.393	165.760
853.521	162.519
853.649	170.058
853.777	164.135
853.905	158.202
854.033	163.048
854.162	161.173
854.290	163.990
854.418	177.510
854.546	192.433
854.674	183.048
854.802	168.163
854.930	164.500
855.058	166.413
855.187	159.587
855.315	187.106
855.443	163.721
855.571	160.654
855.699	169.519
855.827	158.183
855.955	161.000
856.083	163.279
856.212	162.510
856.340	164.798
856.468	167.548
856.596	160.202
856.724	169.375
856.852	177.510
856.980	160.577
857.108	155.000
857.237	155.260
857.365	171.798
857.493	168.731
857.621	161.250
857.749	160.144
857.877	162.173
858.005	161.798
858.133	162.269
858.262	159.740
858.390	158.519
858.518	155.827
858.646	168.971
858.774	157.385
858.902	156.462
859.030	161.471
859.158	164.096
859.287	161.212
859.415	166.837
859.543	159.808
859.671	165.625
859.799	169.712
859.927	162.183
860.055	155.481
860.183	154.769
860.312	157.558
860.440	160.529
860.568	152.394
860.696	167.173
860.824	170.875
860.952	154.971
861.080	161.702
861.208	162.913
861.337	160.212
861.465	170.365
861.593	166.260
861.721	164.500
861.849	165.760
861.977	160.163
862.105	161.125
862.233	158.356
862.362	155.163
862.490	153.644
862.618	156.029
862.746	160.279
862.874	161.394
863.002	163.702
863.130	165.538
863.258	164.413
863.387	166.038
863.515	161.481
863.643	168.010
863.771	161.442
863.899	161.885
864.027	166.250
864.155	186.212
864.283	162.183
864.412	157.846
864.540	165.077
864.668	155.635
864.796	159.106
864.924	161.394
865.052	152.894
865.180	175.490
865.308	161.692
865.437	162.654
865.565	154.192
865.693	159.798
865.821	154.625
865.949	179.019
866.077	163.240
866.205	159.635
866.333	164.048
866.462	152.010
866.590	166.096
866.718	164.058
866.846	156.663
866.974	163.413
867.102	151.404
867.230	163.548
867.358	159.048
867.487	167.115
867.615	173.875
867.743	156.692
867.871	165.865
867.999	158.615
868.127	170.500
868.255	172.510
868.383	151.096
868.512	162.087
868.640	159.644
868.768	157.135
868.896	171.337
869.024	159.269
869.152	157.125
869.280	154.298
869.408	154.692
869.537	154.577
869.665	155.385
869.793	160.625
869.921	159.481
870.049	154.404
870.177	159.577
870.305	155.596
870.433	155.654
870.562	164.221
870.690	159.817
870.818	166.269
870.946	157.923
871.074	153.808
871.202	156.567
871.330	153.740
871.458	160.337
871.587	160.413
871.715	159.750
871.843	163.856
871.971	162.596
872.099	153.010
872.227	159.240
872.355	156.019
872.483	155.808
872.612	161.192
872.740	158.798
872.868	160.144
872.996	159.404
873.124	168.298
873.252	160.606
873.380	153.856
873.508	168.856
873.637	164.096
873.765	153.750
873.893	156.519
874.021	155.769
874.149	154.731
874.277	155.962
874.405	163.971
874.533	163.500
874.662	151.298
874.790	161.115
874.918	156.606
875.046	160.163
875.174	157.067
875.302	156.413
875.430	155.875
875.558	158.029
875.687	165.000
875.815	156.865
875.943	161.231
876.071	157.837
876.199	160.529
876.327	158.250
876.455	159.365
876.583	153.827
876.712	161.115
876.840	160.481
876.968	158.394
877.096	160.577
877.224	157.433
877.352	150.731
877.480	157.317
877.608	167.712
877.737	161.096
877.865	154.635
877.993	159.519
878.121	160.481
878.249	157.904
878.377	154.481
878.505	161.010
878.633	163.481
878.762	154.144
878.890	156.327
879.018	165.038
879.146	156.548
879.274	184.692
879.402	156.952
879.530	152.721
879.658	159.798
879.787	159.019
879.915	153.712
880.043	154.933
880.171	191.981
880.299	160.683
880.427	159.163
880.555	153.048
880.683	163.375
880.812	157.529
880.940	156.760
881.068	164.587
881.196	154.173
881.324	155.827
881.452	157.317
881.580	161.615
881.708	165.558
881.837	160.365
881.965	158.817
882.093	148.058
882.221	152.260
882.349	151.298
882.477	157.990
882.605	156.471
882.733	162.125
882.862	156.856
882.990	167.750
883.118	164.106
883.246	166.240
883.374	156.154
883.502	165.471
883.630	162.683
883.758	156.962
883.887	163.106
884.015	159.596
884.143	163.298
884.271	157.673
884.399	155.913
884.527	159.817
884.655	154.135
884.783	161.769
884.912	178.846
885.040	165.192
885.168	153.404
885.296	163.096
885.424	158.740
885.552	160.154
885.680	172.721
885.808	163.673
885.937	164.029
886.065	164.404
886.193	158.077
886.321	157.394
886.449	156.856
886.577	157.577
886.705	168.558
886.833	151.712
886.962	164.346
887.090	159.519
887.218	156.144
887.346	157.904
887.474	156.183
887.602	154.413
887.730	150.010
887.858	155.885
887.987	157.433
888.115	160.596
888.243	157.510
888.371	169.192
888.499	160.212
888.627	154.442
888.755	167.192
888.883	157.577
889.012	158.615
889.140	157.298
889.268	161.587
889.396	150.894
889.524	165.260
889.652	151.837
889.780	157.356
889.908	157.115
890.037	164.529
890.165	155.654
890.293	162.202
890.421	157.317
890.549	151.462
890.677	149.058
890.805	158.413
890.933	155.923
891.062	154.923
891.190	161.269
891.318	151.750
891.446	155.183
891.574	150.433
891.702	153.981
891.830	160.875
891.958	165.856
892.087	163.654
892.215	159.625
892.343	160.606
892.471	164.202
892.599	151.683
892.727	161.644
892.855	176.154
892.983	151.375
893.112	155.163
893.240	164.087
893.368	154.413
893.496	164.000
893.624	164.971
893.752	177.817
893.880	161.423
894.008	161.135
894.137	157.865
894.265	162.192
894.393	156.413
894.521	165.615
894.649	159.510
894.777	152.471
894.905	192.856
895.033	156.173
895.162	154.654
895.290	160.683
895.418	160.577
895.546	192.971
895.674	163.135
895.802	197.538
895.930	163.298
896.058	155.663
896.187	160.817
896.315	152.500
896.443	166.913
896.571	181.885
896.699	156.913
896.827	157.288
896.955	155.885
897.083	161.144
897.212	155.769
897.340	154.952
897.468	158.356
897.596	154.721
897.724	156.346
897.852	154.606
897.980	152.981
898.108	166.635
898.237	157.269
898.365	156.596
898.493	162.183
898.621	155.913
898.749	157.731
898.877	154.625
899.005	155.971
899.133	157.962
899.262	172.413
899.390	153.163
899.518	161.288
899.646	154.731
899.774	152.019
899.902	154.413
900.030	166.702
900.158	158.288
900.287	158.827
900.415	152.346
900.543	161.000
900.671	166.010
900.799	158.952
900.927	156.058
901.055	168.875
901.183	167.192
901.312	163.625
901.440	154.962
901.568	155.471
901.696	156.308
901.824	155.087
901.952	154.058
902.080	162.779
902.208	160.721
902.337	165.106
902.465	153.481
902.593	172.308
902.721	180.106
902.849	177.625
902.977	160.269
903.105	160.654
903.233	161.058
903.362	152.837
903.490	166.596
903.618	158.644
903.746	153.596
903.874	163.567
904.002	160.019
904.130	174.038
904.258	152.154
904.387	160.904
904.515	154.250
904.643	160.952
904.771	155.817
904.899	154.010
905.027	161.000
905.155	157.587
905.283	153.423
905.412	173.462
905.540	161.558
905.668	157.769
905.796	163.462
905.924	159.183
906.052	160.740
906.180	164.971
906.308	155.962
906.437	155.817
906.565	162.144
906.693	168.423
906.821	154.712
906.949	155.808
907.077	156.846
907.205	166.567
907.333	151.721
907.462	156.010
907.590	157.548
907.718	157.125
907.846	165.115
907.974	155.423
908.102	157.644
908.230	160.779
908.358	158.750
908.487	155.663
908.615	163.962
908.743	170.087
908.871	161.010
908.999	153.779
909.127	158.192
909.255	168.404
909.383	155.596
909.512	155.317
909.640	171.385
909.768	158.856
909.896	162.077
910.024	165.846
910.152	168.394
910.280	165.769
910.408	160.875
910.537	158.712
910.665	164.750
910.793	165.750
910.921	167.856
911.049	171.606
911.177	170.298
911.305	162.394
911.433	182.808
911.562	168.192
911.690	166.250
911.818	162.750
911.946	162.163
912.074	168.183
912.202	160.490
912.330	180.615
912.458	157.058
912.587	164.375
912.715	166.692
912.843	173.817
912.971	166.933
913.099	182.760
913.227	170.558
913.355	170.163
913.483	177.894
913.612	174.673
913.740	194.288
913.868	170.740
