70_130_90_Pol_at_750.00nm_cut_at_1179.00Y_01.dat
03.07.2023
11:13:17
cut middle at Y: 1179.00
top cursor: 1231 down cursor: 1127 mean of: 104 lines , 2560 datapoints
wavelength(nm)	intensity[arb. units]
585.996	11426.683
586.124	11203.625
586.252	11172.135
586.380	11233.481
586.508	11253.404
586.637	11371.375
586.765	11314.385
586.893	11393.087
587.021	11395.625
587.149	11431.423
587.277	11454.356
587.405	11404.856
587.533	11527.558
587.662	11558.452
587.790	11509.558
587.918	11497.250
588.046	11485.029
588.174	11543.962
588.302	11526.519
588.430	11551.029
588.558	11545.606
588.687	11580.231
588.815	11564.010
588.943	11588.221
589.071	11561.356
589.199	11597.288
589.327	11561.846
589.455	11641.779
589.583	11583.077
589.712	11570.673
589.840	11547.154
589.968	11604.510
590.096	11605.183
590.224	11596.827
590.352	11640.394
590.480	11604.596
590.608	11581.577
590.737	11592.846
590.865	11702.000
590.993	11602.760
591.121	11630.529
591.249	11617.702
591.377	11619.894
591.505	11700.202
591.633	11656.712
591.762	11644.298
591.890	11679.788
592.018	11758.827
592.146	11712.769
592.274	11670.538
592.402	11657.269
592.530	11854.452
592.658	11776.048
592.787	11769.163
592.915	11828.875
593.043	11756.058
593.171	11809.106
593.299	11791.106
593.427	11791.462
593.555	11823.962
593.683	11845.702
593.812	11901.615
593.940	11922.644
594.068	11904.077
594.196	11918.115
594.324	11976.346
594.452	12149.837
594.580	12025.087
594.708	12065.423
594.837	12083.500
594.965	12164.212
595.093	12094.673
595.221	12224.433
595.349	12191.423
595.477	12238.913
595.605	12278.356
595.733	12282.433
595.862	12300.606
595.990	12309.769
596.118	12387.385
596.246	12398.260
596.374	12331.385
596.502	12376.635
596.630	12417.019
596.758	12408.558
596.887	12443.596
597.015	12463.298
597.143	12460.212
597.271	12473.913
597.399	12520.452
597.527	12513.971
597.655	12502.981
597.783	12514.923
597.912	12510.625
598.040	12541.567
598.168	12540.952
598.296	12449.192
598.424	12657.423
598.552	12520.029
598.680	12542.154
598.808	12572.048
598.937	12529.933
599.065	12546.798
599.193	12596.808
599.321	12579.760
599.449	12562.404
599.577	12518.423
599.705	12562.125
599.833	12550.394
599.962	12501.385
600.090	12547.587
600.218	12531.135
600.346	12548.260
600.474	12518.702
600.602	12519.519
600.730	12542.202
600.858	12555.077
600.987	12599.952
601.115	12600.221
601.243	12657.615
601.371	12701.019
601.499	12684.452
601.627	12696.356
601.755	12673.635
601.883	12736.740
602.012	12654.058
602.140	12725.481
602.268	12753.087
602.396	12860.788
602.524	12776.644
602.652	12887.625
602.780	12896.558
602.908	12908.962
603.037	12950.798
603.165	12990.837
603.293	13014.356
603.421	13051.606
603.549	13066.106
603.677	13105.875
603.805	13142.240
603.933	13174.413
604.062	13255.192
604.190	13328.442
604.318	13333.846
604.446	13314.202
604.574	13406.471
604.702	13453.904
604.830	13433.596
604.958	13481.010
605.087	13540.923
605.215	13622.481
605.343	13698.490
605.471	13677.087
605.599	13672.913
605.727	13779.635
605.855	13755.337
605.983	13824.981
606.112	13843.048
606.240	13864.596
606.368	13901.808
606.496	13894.606
606.624	13962.212
606.752	13902.452
606.880	13984.250
607.008	13998.750
607.137	14013.288
607.265	14050.192
607.393	14059.962
607.521	14108.827
607.649	14064.904
607.777	14080.125
607.905	14083.856
608.033	14054.308
608.162	14052.115
608.290	14054.692
608.418	14161.606
608.546	14182.596
608.674	14158.404
608.802	14084.260
608.930	14107.327
609.058	14049.019
609.187	14101.529
609.315	14083.798
609.443	14050.500
609.571	14177.760
609.699	14066.067
609.827	14154.144
609.955	14100.423
610.083	14026.115
610.212	14034.990
610.340	14037.587
610.468	14056.298
610.596	14054.423
610.724	13999.827
610.852	14092.058
610.980	14086.683
611.108	14050.538
611.237	14042.394
611.365	14072.644
611.493	14070.279
611.621	14059.615
611.749	14117.731
611.877	14154.904
612.005	14101.106
612.133	14132.808
612.262	14201.875
612.390	14231.856
612.518	14245.673
612.646	14227.317
612.774	14277.442
612.902	14298.154
613.030	14302.404
613.158	14249.221
613.287	14427.885
613.415	14294.692
613.543	14390.769
613.671	14356.279
613.799	14455.644
613.927	14457.596
614.055	14527.808
614.183	14466.077
614.312	14516.029
614.440	14657.894
614.568	14635.404
614.696	14689.154
614.824	14666.788
614.952	14715.490
615.080	14751.933
615.208	14768.183
615.337	14869.288
615.465	14845.433
615.593	14889.481
615.721	14875.702
615.849	14979.048
615.977	14945.317
616.105	14987.952
616.233	14983.885
616.362	15094.144
616.490	15083.654
616.618	15162.606
616.746	15279.606
616.874	15184.231
617.002	15250.471
617.130	15266.240
617.258	15246.010
617.387	15287.212
617.515	15325.942
617.643	15331.375
617.771	15428.952
617.899	15355.587
618.027	15451.490
618.155	15461.510
618.283	15437.788
618.412	15447.577
618.540	15531.260
618.668	15458.183
618.796	15541.731
618.924	15499.923
619.052	15548.115
619.180	15537.413
619.308	15511.433
619.437	15539.760
619.565	15531.163
619.693	15575.279
619.821	15573.250
619.949	15524.212
620.077	15597.981
620.205	15634.433
620.333	15633.096
620.462	15589.846
620.590	15602.096
620.718	15682.731
620.846	15674.000
620.974	15631.683
621.102	15725.385
621.230	15690.635
621.358	15847.673
621.487	15683.606
621.615	15736.087
621.743	15628.798
621.871	15736.423
621.999	15621.308
622.127	15661.087
622.255	15685.231
622.383	15651.904
622.512	15629.096
622.640	15670.510
622.768	15719.029
622.896	15736.394
623.024	15728.654
623.152	15680.490
623.280	15763.923
623.408	15730.135
623.537	15753.010
623.665	15696.231
623.793	15758.817
623.921	15718.798
624.049	15722.144
624.177	15699.827
624.305	15743.000
624.433	15708.442
624.562	15784.106
624.690	15896.327
624.818	15695.606
624.946	15703.154
625.074	15719.038
625.202	15691.615
625.330	15752.327
625.458	15856.096
625.587	15737.942
625.715	15825.269
625.843	15767.048
625.971	15811.981
626.099	15795.577
626.227	15806.365
626.355	15782.962
626.483	15862.788
626.612	15828.490
626.740	15884.115
626.868	15858.231
626.996	15893.567
627.124	15852.558
627.252	15857.692
627.380	15898.962
627.508	15903.317
627.637	15884.644
627.765	15964.712
627.893	15987.538
628.021	16036.452
628.149	15954.548
628.277	16080.587
628.405	16018.212
628.533	15999.606
628.662	16036.885
628.790	16127.240
628.918	16028.010
629.046	16260.308
629.174	16116.106
629.302	16173.702
629.430	16132.692
629.558	16171.288
629.687	16136.452
629.815	16219.721
629.943	16327.221
630.071	16302.962
630.199	16280.538
630.327	16336.067
630.455	16380.837
630.583	16363.673
630.712	16387.904
630.840	16439.365
630.968	16433.087
631.096	16405.654
631.224	16446.837
631.352	16610.173
631.480	16489.596
631.608	16671.519
631.737	16527.029
631.865	16643.663
631.993	16651.750
632.121	16741.788
632.249	16629.529
632.377	16636.000
632.505	16638.212
632.633	16670.779
632.762	16620.731
632.890	16621.760
633.018	16626.548
633.146	16633.058
633.274	16631.221
633.402	16650.837
633.530	16649.423
633.658	16636.125
633.787	16648.615
633.915	16636.048
634.043	16631.423
634.171	16687.010
634.299	16620.144
634.427	16579.615
634.555	16849.846
634.683	16654.875
634.812	16648.385
634.940	16608.125
635.068	16582.433
635.196	16570.096
635.324	16561.106
635.452	16548.538
635.580	16624.423
635.708	16510.250
635.837	16521.442
635.965	16502.971
636.093	16474.346
636.221	16432.462
636.349	16382.885
636.477	16392.500
636.605	16433.788
636.733	16352.683
636.862	16289.212
636.990	16337.529
637.118	16299.327
637.246	16222.192
637.374	16364.115
637.502	16191.913
637.630	16166.058
637.758	16146.298
637.887	16087.519
638.015	16225.481
638.143	16166.240
638.271	16039.712
638.399	16082.154
638.527	15974.779
638.655	16016.279
638.783	16004.048
638.912	16050.106
639.040	15947.356
639.168	15936.212
639.296	15900.837
639.424	15969.490
639.552	15914.913
639.680	15956.837
639.808	15924.856
639.937	15890.288
640.065	15837.260
640.193	15849.856
640.321	15957.115
640.449	15896.933
640.577	15832.577
640.705	15849.817
640.833	15830.212
640.962	15895.144
641.090	15798.038
641.218	15799.433
641.346	15913.904
641.474	15850.221
641.602	15847.385
641.730	15817.058
641.858	15805.394
641.987	15804.885
642.115	15978.385
642.243	15841.538
642.371	16046.308
642.499	15843.837
642.627	15914.404
642.755	15884.865
642.883	15879.702
643.012	15868.356
643.140	15921.135
643.268	15908.279
643.396	15865.577
643.524	15903.019
643.652	15980.096
643.780	15903.183
643.908	15891.298
644.037	16020.750
644.165	15996.769
644.293	16072.990
644.421	15903.769
644.549	15935.212
644.677	15973.990
644.805	15932.202
644.933	15908.856
645.062	15959.548
645.190	16051.337
645.318	15934.712
645.446	15882.481
645.574	15898.337
645.702	15963.269
645.830	15928.029
645.958	15867.808
646.087	15896.654
646.215	15857.529
646.343	15855.394
646.471	16034.385
646.599	15884.404
646.727	15799.740
646.855	15829.500
646.983	15794.760
647.112	15854.990
647.240	15789.452
647.368	15825.231
647.496	15785.163
647.624	15772.404
647.752	15764.462
647.880	15669.673
648.008	15705.798
648.137	15735.865
648.265	15681.240
648.393	15775.019
648.521	15648.433
648.649	15745.173
648.777	15680.798
648.905	15602.567
649.033	15650.298
649.162	15508.077
649.290	15453.048
649.418	15480.365
649.546	15643.615
649.674	15476.240
649.802	15407.125
649.930	15394.683
650.058	15308.760
650.187	15385.981
650.315	15295.933
650.443	15305.221
650.571	15235.846
650.699	15226.462
650.827	15180.433
650.955	15137.760
651.083	15215.721
651.212	15137.894
651.340	15115.635
651.468	15087.250
651.596	15052.644
651.724	15038.913
651.852	14972.125
651.980	14964.731
652.108	14897.365
652.237	14912.654
652.365	14871.635
652.493	14791.827
652.621	14770.529
652.749	14762.683
652.877	14769.442
653.005	14746.356
653.133	14655.221
653.262	14611.356
653.390	14593.298
653.518	14749.115
653.646	14585.933
653.774	14547.798
653.902	14598.933
654.030	14593.913
654.158	14454.163
654.287	14499.250
654.415	14446.904
654.543	14466.163
654.671	14419.587
654.799	14385.154
654.927	14343.808
655.055	14288.365
655.183	14286.856
655.312	14265.673
655.440	14255.423
655.568	14214.644
655.696	14247.894
655.824	14139.644
655.952	14155.817
656.080	14068.365
656.208	14132.337
656.337	14097.154
656.465	14255.125
656.593	14005.981
656.721	14070.635
656.849	14092.106
656.977	13879.212
657.105	13904.788
657.233	13891.279
657.362	13954.500
657.490	13867.942
657.618	13829.087
657.746	13791.471
657.874	13675.269
658.002	13650.798
658.130	13627.240
658.258	13638.990
658.387	13563.000
658.515	13519.904
658.643	13494.077
658.771	13571.519
658.899	13425.154
659.027	13451.817
659.155	13458.375
659.283	13373.808
659.412	13371.346
659.540	13367.077
659.668	13382.404
659.796	13387.173
659.924	13343.192
660.052	13388.327
660.180	13250.894
660.308	13324.817
660.437	13283.212
660.565	13221.923
660.693	13096.240
660.821	13308.663
660.949	13072.962
661.077	13104.750
661.205	13231.769
661.333	13028.779
661.462	12982.096
661.590	13131.058
661.718	12996.692
661.846	12980.394
661.974	12907.317
662.102	12925.125
662.230	12892.769
662.358	12775.327
662.487	12830.058
662.615	12792.510
662.743	12789.548
662.871	12779.817
662.999	12693.346
663.127	12657.135
663.255	12628.817
663.383	12753.798
663.512	12557.577
663.640	12620.212
663.768	12617.663
663.896	12531.567
664.024	12521.317
664.152	12488.240
664.280	12575.298
664.408	12463.913
664.537	12409.144
664.665	12448.606
664.793	12447.125
664.921	12378.308
665.049	12405.923
665.177	12304.019
665.305	12354.538
665.433	12325.827
665.562	12437.048
665.690	12294.529
665.818	12421.635
665.946	12163.548
666.074	12191.894
666.202	12186.019
666.330	12124.019
666.458	12496.933
666.587	12098.933
666.715	12107.827
666.843	12053.048
666.971	12074.183
667.099	12097.269
667.227	12097.962
667.355	12084.106
667.483	11964.144
667.612	12023.952
667.740	12002.106
667.868	11899.952
667.996	11886.067
668.124	11948.635
668.252	11993.327
668.380	11838.000
668.508	11860.798
668.637	11793.163
668.765	11817.942
668.893	11782.490
669.021	11702.067
669.149	11743.413
669.277	11654.029
669.405	11767.529
669.533	11719.846
669.662	11587.692
669.790	11595.500
669.918	11615.154
670.046	11670.990
670.174	11452.865
670.302	11455.654
670.430	11424.356
670.558	11454.212
670.687	11576.663
670.815	11363.298
670.943	11383.990
671.071	11258.875
671.199	11243.404
671.327	11218.192
671.455	11236.904
671.583	11198.654
671.712	11158.885
671.840	11186.481
671.968	11285.865
672.096	11234.298
672.224	11036.913
672.352	10981.606
672.480	10941.952
672.608	10985.154
672.737	10892.260
672.865	10847.375
672.993	10832.317
673.121	10830.413
673.249	10754.606
673.377	10704.615
673.505	10672.279
673.633	10729.154
673.762	10602.337
673.890	10584.942
674.018	10613.692
674.146	10538.067
674.274	10492.067
674.402	10539.990
674.530	10439.452
674.658	10380.394
674.787	10355.375
674.915	10453.587
675.043	10303.356
675.171	10285.529
675.299	10212.260
675.427	10171.856
675.555	10130.288
675.683	10135.202
675.812	10103.952
675.940	10059.231
676.068	10006.673
676.196	10028.471
676.324	9908.058
676.452	9845.471
676.580	9838.317
676.708	9818.558
676.837	9773.788
676.965	9863.846
677.093	9888.817
677.221	9764.231
677.349	9668.125
677.477	9737.048
677.605	9605.750
677.733	9603.298
677.862	9539.654
677.990	9529.769
678.118	9543.519
678.246	9457.740
678.374	9497.125
678.502	9406.933
678.630	9340.019
678.758	9368.865
678.887	9449.644
679.015	9214.625
679.143	9198.606
679.271	9182.058
679.399	9164.769
679.527	9188.500
679.655	9187.817
679.783	9031.760
679.912	9027.135
680.040	9161.510
680.168	8971.615
680.296	9016.702
680.424	8956.635
680.552	8909.885
680.680	8875.317
680.808	8819.279
680.937	8795.019
681.065	8833.000
681.193	8773.606
681.321	8709.308
681.449	8767.404
681.577	8702.952
681.705	8682.279
681.833	8673.731
681.962	8632.673
682.090	8591.269
682.218	8576.913
682.346	8578.173
682.474	8503.750
682.602	8507.712
682.730	8504.250
682.858	8447.000
682.987	8428.731
683.115	8459.048
683.243	8386.135
683.371	8403.760
683.499	8342.779
683.627	8358.625
683.755	8297.990
683.883	8285.673
684.012	8292.529
684.140	8219.625
684.268	8204.942
684.396	8274.596
684.524	8152.346
684.652	8186.212
684.780	8183.769
684.908	8151.596
685.037	8145.981
685.165	8096.433
685.293	8155.337
685.421	8076.885
685.549	8064.067
685.677	7993.558
685.805	8055.712
685.933	7996.404
686.062	7956.731
686.190	7911.837
686.318	7909.404
686.446	7890.010
686.574	7837.096
686.702	7898.760
686.830	7787.481
686.958	7864.365
687.087	7744.894
687.215	7818.000
687.343	7759.952
687.471	7888.404
687.599	7655.683
687.727	7647.673
687.855	7580.125
687.983	7571.933
688.112	7635.327
688.240	7584.106
688.368	7566.481
688.496	7518.740
688.624	7471.173
688.752	7619.115
688.880	7463.567
689.008	7425.202
689.137	7410.683
689.265	7359.817
689.393	7347.106
689.521	7341.481
689.649	7406.971
689.777	7309.010
689.905	7330.183
690.033	7230.606
690.162	7201.288
690.290	7250.875
690.418	7140.529
690.546	7190.279
690.674	7181.087
690.802	7166.712
690.930	7121.462
691.058	7098.010
691.187	7037.721
691.315	7034.183
691.443	7019.471
691.571	7002.308
691.699	6924.913
691.827	6896.375
691.955	6887.788
692.083	6872.683
692.212	6888.490
692.340	6844.981
692.468	6851.913
692.596	6823.654
692.724	6768.000
692.852	6779.981
692.980	6761.077
693.108	6813.192
693.237	6671.769
693.365	6638.760
693.493	6632.923
693.621	6613.644
693.749	6563.837
693.877	6608.423
694.005	6526.308
694.133	6506.404
694.262	6542.702
694.390	6442.760
694.518	6437.971
694.646	6439.481
694.774	6350.029
694.902	6361.038
695.030	6346.163
695.158	6301.019
695.287	6303.692
695.415	6277.663
695.543	6266.567
695.671	6201.606
695.799	6294.913
695.927	6185.538
696.055	6194.692
696.183	6131.904
696.312	6293.077
696.440	6099.260
696.568	6099.788
696.696	5970.548
696.824	5952.952
696.952	5969.663
697.080	5959.404
697.208	5918.346
697.337	5901.529
697.465	5869.817
697.593	5834.202
697.721	5941.875
697.849	5803.875
697.977	5839.779
698.105	5859.202
698.233	5773.058
698.362	5689.308
698.490	5818.740
698.618	5652.837
698.746	5637.163
698.874	5716.087
699.002	5628.750
699.130	5644.048
699.258	5571.471
699.387	5520.837
699.515	5551.394
699.643	5566.856
699.771	5609.375
699.899	5457.462
700.027	5429.490
700.155	5466.519
700.283	5339.558
700.412	5339.942
700.540	5393.702
700.668	5426.231
700.796	5292.231
700.924	5342.798
701.052	5317.327
701.180	5314.106
701.308	5209.817
701.437	5189.221
701.565	5160.990
701.693	5195.385
701.821	5330.769
701.949	5097.750
702.077	5096.952
702.205	5137.673
702.333	5087.808
702.462	5023.096
702.590	5069.808
702.718	4968.923
702.846	5143.913
702.974	4925.760
703.102	4907.500
703.230	4946.558
703.358	4873.000
703.487	4859.510
703.615	4849.856
703.743	4790.933
703.871	4789.038
703.999	4769.298
704.127	4734.308
704.255	4719.365
704.383	4725.635
704.512	4774.827
704.640	4723.817
704.768	4759.654
704.896	4612.558
705.024	4557.404
705.152	4610.962
705.280	4636.885
705.408	4532.529
705.537	4501.240
705.665	4525.269
705.793	4495.433
705.921	4473.894
706.049	4433.721
706.177	4462.125
706.305	4388.260
706.433	4412.683
706.562	4403.413
706.690	4395.221
706.818	4366.212
706.946	4297.442
707.074	4275.500
707.202	4245.692
707.330	4269.577
707.458	4230.837
707.587	4175.106
707.715	4222.038
707.843	4211.692
707.971	4214.298
708.099	4109.077
708.227	4108.808
708.355	4119.375
708.483	4084.048
708.612	4067.567
708.740	4029.817
708.868	4026.875
708.996	4094.000
709.124	4051.317
709.252	4007.635
709.380	4009.346
709.508	3945.106
709.637	3955.135
709.765	3928.692
709.893	3986.010
710.021	3877.250
710.149	3980.942
710.277	3854.106
710.405	3866.788
710.533	3843.615
710.662	3796.433
710.790	3937.481
710.918	3762.933
711.046	3827.692
711.174	3761.923
711.302	3788.712
711.430	3753.452
711.558	3774.750
711.687	3729.010
711.815	3705.587
711.943	3661.221
712.071	3659.644
712.199	3680.298
712.327	3733.981
712.455	3614.827
712.583	3777.048
712.712	3623.712
712.840	3646.240
712.968	3574.548
713.096	3536.000
713.224	3562.808
713.352	3535.654
713.480	3497.846
713.608	3484.606
713.737	3471.721
713.865	3532.904
713.993	3468.923
714.121	3466.663
714.249	3415.433
714.377	3397.019
714.505	3383.846
714.633	3397.442
714.762	3380.673
714.890	3375.538
715.018	3347.625
715.146	3374.913
715.274	3329.558
715.402	3330.808
715.530	3273.212
715.658	3347.500
715.787	3293.942
715.915	3388.702
716.043	3268.490
716.171	3389.779
716.299	3214.279
716.427	3279.798
716.555	3194.490
716.683	3193.144
716.812	3175.702
716.940	3153.596
717.068	3125.952
717.196	3303.106
717.324	3148.500
717.452	3133.702
717.580	3171.798
717.708	3079.442
717.837	3088.423
717.965	3126.615
718.093	3070.423
718.221	3108.173
718.349	3116.452
718.477	3022.404
718.605	3111.231
718.733	3024.904
718.862	3045.904
718.990	2959.019
719.118	3030.481
719.246	2953.144
719.374	2934.279
719.502	2980.144
719.630	3077.308
719.758	2900.317
719.887	2891.115
720.015	2919.952
720.143	2954.135
720.271	2837.433
720.399	2869.288
720.527	2842.673
720.655	2927.442
720.783	2816.587
720.912	2793.644
721.040	2803.173
721.168	2825.808
721.296	2742.654
721.424	2766.760
721.552	2738.048
721.680	2808.125
721.808	2767.885
721.937	2738.202
722.065	2750.933
722.193	2717.981
722.321	2720.971
722.449	2700.173
722.577	2647.500
722.705	2646.644
722.833	2679.337
722.962	2659.048
723.090	2624.750
723.218	2631.827
723.346	2652.029
723.474	2609.154
723.602	2586.394
723.730	2585.471
723.858	2559.635
723.987	2589.529
724.115	2564.413
724.243	2575.490
724.371	2531.654
724.499	2522.433
724.627	2519.202
724.755	2511.808
724.883	2546.615
725.012	2567.404
725.140	2503.173
725.268	2462.135
725.396	2468.385
725.524	2509.721
725.652	2440.202
725.780	2468.269
725.908	2424.625
726.037	2418.548
726.165	2399.019
726.293	2393.952
726.421	2396.885
726.549	2397.462
726.677	2365.385
726.805	2353.510
726.933	2356.981
727.062	2342.606
727.190	2332.606
727.318	2301.087
727.446	2316.048
727.574	2293.096
727.702	2276.500
727.830	2288.817
727.958	2281.923
728.087	2285.837
728.215	2275.981
728.343	2238.231
728.471	2236.971
728.599	2246.712
728.727	2231.827
728.855	2221.173
728.983	2188.154
729.112	2195.375
729.240	2173.798
729.368	2180.260
729.496	2171.798
729.624	2164.442
729.752	2154.644
729.880	2153.933
730.008	2138.750
730.137	2138.827
730.265	2130.212
730.393	2126.567
730.521	2108.952
730.649	2093.433
730.777	2067.673
730.905	2079.827
731.033	2045.471
731.162	2071.596
731.290	2072.692
731.418	2049.337
731.546	2043.510
731.674	2044.337
731.802	2034.106
731.930	2027.269
732.058	1999.279
732.187	2003.231
732.315	2027.029
732.443	2012.317
732.571	1989.750
732.699	1974.365
732.827	1989.817
732.955	1974.904
733.083	1955.769
733.212	1958.510
733.340	1957.115
733.468	1945.433
733.596	1919.433
733.724	1919.587
733.852	1915.788
733.980	1894.952
734.108	1920.163
734.237	1919.606
734.365	1906.731
734.493	1867.240
734.621	1890.413
734.749	1879.385
734.877	1857.423
735.005	1852.548
735.133	1867.500
735.262	1866.596
735.390	1830.923
735.518	1840.183
735.646	1827.712
735.774	1830.471
735.902	1815.087
736.030	1816.596
736.158	1816.144
736.287	1818.692
736.415	1819.702
736.543	1793.673
736.671	1775.577
736.799	1770.779
736.927	1786.260
737.055	1769.260
737.183	1749.981
737.312	1745.971
737.440	1741.548
737.568	1739.452
737.696	1750.894
737.824	1745.356
737.952	1954.942
738.080	1706.106
738.208	1717.510
738.337	1711.404
738.465	1720.365
738.593	1697.433
738.721	1671.183
738.849	1697.298
738.977	1665.721
739.105	1691.587
739.233	1683.894
739.362	1659.538
739.490	1650.452
739.618	1645.606
739.746	1638.423
739.874	1627.317
740.002	1647.000
740.130	1603.606
740.258	1615.798
740.387	1628.490
740.515	1609.490
740.643	1576.548
740.771	1601.933
740.899	1578.538
741.027	1572.288
741.155	1580.135
741.283	1573.923
741.412	1587.740
741.540	1560.558
741.668	1555.923
741.796	1558.712
741.924	1537.817
742.052	1532.115
742.180	1528.913
742.308	1509.048
742.437	1523.452
742.565	1517.865
742.693	1514.298
742.821	1522.663
742.949	1492.173
743.077	1480.317
743.205	1484.365
743.333	1470.740
743.462	1486.510
743.590	1459.644
743.718	1475.942
743.846	1458.625
743.974	1480.240
744.102	1448.308
744.230	1453.510
744.358	1456.510
744.487	1435.115
744.615	1425.663
744.743	1424.192
744.871	1421.067
744.999	1403.865
745.127	1409.904
745.255	1383.827
745.383	1390.654
745.512	1381.038
745.640	1370.481
745.768	1375.760
745.896	1365.740
746.024	1365.798
746.152	1363.779
746.280	1354.913
746.408	1365.471
746.537	1345.529
746.665	1359.423
746.793	1340.106
746.921	1334.933
747.049	1333.058
747.177	1324.375
747.305	1334.577
747.433	1323.385
747.562	1310.096
747.690	1317.846
747.818	1302.240
747.946	1309.212
748.074	1292.538
748.202	1285.135
748.330	1279.846
748.458	1274.500
748.587	1289.788
748.715	1280.548
748.843	1260.731
748.971	1256.856
749.099	1261.135
749.227	1260.029
749.355	1288.596
749.483	1240.827
749.612	1264.231
749.740	1244.375
749.868	1232.894
749.996	1230.644
750.124	1243.712
750.252	1217.846
750.380	1221.192
750.508	1223.394
750.637	1208.760
750.765	1215.837
750.893	1200.885
751.021	1196.615
751.149	1192.971
751.277	1184.644
751.405	1173.692
751.533	1195.375
751.662	1168.346
751.790	1166.327
751.918	1162.183
752.046	1151.221
752.174	1146.308
752.302	1140.442
752.430	1137.058
752.558	1134.875
752.687	1137.135
752.815	1133.115
752.943	1132.587
753.071	1114.529
753.199	1128.154
753.327	1134.971
753.455	1108.519
753.583	1091.952
753.712	1099.038
753.840	1114.029
753.968	1084.692
754.096	1104.913
754.224	1094.413
754.352	1067.260
754.480	1098.577
754.608	1069.404
754.737	1072.500
754.865	1080.490
754.993	1068.808
755.121	1062.827
755.249	1041.942
755.377	1027.029
755.505	1046.221
755.633	1040.692
755.762	1030.865
755.890	1043.490
756.018	1036.385
756.146	1019.231
756.274	1010.644
756.402	1019.106
756.530	1020.346
756.658	1011.423
756.787	999.625
756.915	995.106
757.043	987.779
757.171	988.981
757.299	996.712
757.427	973.471
757.555	975.644
757.683	980.279
757.812	980.962
757.940	965.413
758.068	970.519
758.196	967.048
758.324	950.962
758.452	962.894
758.580	955.933
758.708	947.019
758.837	963.231
758.965	953.029
759.093	940.635
759.221	932.817
759.349	924.510
759.477	920.875
759.605	909.837
759.733	924.490
759.862	910.279
759.990	905.433
760.118	901.490
760.246	909.846
760.374	909.337
760.502	905.692
760.630	874.644
760.758	886.471
760.887	883.875
761.015	878.346
761.143	889.356
761.271	872.740
761.399	868.558
761.527	880.827
761.655	876.529
761.783	852.260
761.912	856.875
762.040	861.404
762.168	854.837
762.296	837.904
762.424	846.885
762.552	849.067
762.680	828.538
762.808	850.288
762.937	838.163
763.065	819.875
763.193	821.837
763.321	815.798
763.449	807.673
763.577	801.788
763.705	822.125
763.833	808.423
763.962	801.827
764.090	797.644
764.218	799.596
764.346	787.548
764.474	797.183
764.602	784.981
764.730	797.962
764.858	787.981
764.987	782.115
765.115	773.212
765.243	767.029
765.371	774.413
765.499	764.433
765.627	763.519
765.755	758.788
765.883	757.538
766.012	756.942
766.140	746.740
766.268	747.067
766.396	749.250
766.524	749.846
766.652	736.596
766.780	734.327
766.908	741.510
767.037	751.606
767.165	732.231
767.293	733.212
767.421	739.163
767.549	721.856
767.677	741.885
767.805	717.625
767.933	730.798
768.062	718.827
768.190	713.288
768.318	716.087
768.446	709.885
768.574	701.029
768.702	707.567
768.830	702.625
768.958	701.587
769.087	707.019
769.215	695.654
769.343	697.856
769.471	696.750
769.599	698.144
769.727	692.202
769.855	679.596
769.983	716.260
770.112	682.827
770.240	670.317
770.368	674.481
770.496	672.250
770.624	675.212
770.752	667.115
770.880	686.327
771.008	661.750
771.137	666.250
771.265	657.538
771.393	652.481
771.521	663.106
771.649	663.356
771.777	690.933
771.905	706.654
772.033	684.038
772.162	649.490
772.290	647.231
772.418	645.404
772.546	647.192
772.674	641.317
772.802	632.788
772.930	645.500
773.058	638.288
773.187	629.308
773.315	628.029
773.443	637.904
773.571	626.154
773.699	628.337
773.827	628.529
773.955	647.769
774.083	636.615
774.212	612.635
774.340	624.462
774.468	619.288
774.596	612.837
774.724	627.163
774.852	628.462
774.980	613.942
775.108	610.000
775.237	605.692
775.365	603.260
775.493	616.096
775.621	596.712
775.749	606.808
775.877	606.577
776.005	606.048
776.133	598.135
776.262	595.115
776.390	593.856
776.518	583.856
776.646	595.298
776.774	590.519
776.902	584.798
777.030	581.077
777.158	586.337
777.287	602.135
777.415	581.337
777.543	578.115
777.671	590.125
777.799	585.625
777.927	579.510
778.055	582.510
778.183	573.846
778.312	571.394
778.440	576.760
778.568	585.865
778.696	576.202
778.824	577.490
778.952	579.817
779.080	566.981
779.208	561.510
779.337	561.971
779.465	572.644
779.593	558.606
779.721	566.567
779.849	567.683
779.977	561.173
780.105	562.019
780.233	561.817
780.362	558.327
780.490	545.538
780.618	555.173
780.746	550.192
780.874	544.433
781.002	550.750
781.130	546.587
781.258	539.471
781.387	550.923
781.515	548.865
781.643	530.327
781.771	543.288
781.899	553.529
782.027	537.192
782.155	534.933
782.283	532.125
782.412	540.471
782.540	545.221
782.668	539.096
782.796	531.423
782.924	542.577
783.052	539.317
783.180	528.481
783.308	531.375
783.437	526.442
783.565	530.606
783.693	528.500
783.821	530.231
783.949	529.990
784.077	523.269
784.205	520.981
784.333	527.712
784.462	519.144
784.590	511.115
784.718	509.712
784.846	517.221
784.974	528.375
785.102	509.760
785.230	517.875
785.358	507.750
785.487	505.288
785.615	503.385
785.743	503.837
785.871	519.500
785.999	512.346
786.127	514.558
786.255	494.865
786.383	501.538
786.512	504.577
786.640	503.269
786.768	494.087
786.896	490.635
787.024	485.817
787.152	495.712
787.280	505.827
787.408	489.433
787.537	505.885
787.665	496.327
787.793	491.452
787.921	482.317
788.049	486.413
788.177	490.144
788.305	479.490
788.433	487.510
788.562	479.750
788.690	483.019
788.818	486.712
788.946	476.625
789.074	476.837
789.202	476.260
789.330	469.712
789.458	481.000
789.587	472.183
789.715	474.471
789.843	482.413
789.971	469.087
790.099	467.212
790.227	464.779
790.355	466.904
790.483	465.327
790.612	466.519
790.740	467.615
790.868	465.596
790.996	474.712
791.124	477.644
791.252	466.423
791.380	455.567
791.508	464.058
791.637	467.625
791.765	452.279
791.893	453.577
792.021	468.692
792.149	453.452
792.277	450.635
792.405	443.308
792.533	462.404
792.662	448.885
792.790	451.750
792.918	459.875
793.046	447.606
793.174	446.087
793.302	446.394
793.430	441.010
793.558	451.644
793.687	444.952
793.815	439.721
793.943	451.644
794.071	439.240
794.199	435.240
794.327	436.837
794.455	448.865
794.583	439.048
794.712	433.846
794.840	431.058
794.968	434.144
795.096	442.279
795.224	415.865
795.352	468.510
795.480	419.615
795.608	421.481
795.737	423.471
795.865	417.635
795.993	424.500
796.121	421.817
796.249	418.788
796.377	419.356
796.505	422.221
796.633	416.038
796.762	415.673
796.890	404.240
797.018	413.644
797.146	419.327
797.274	425.019
797.402	406.471
797.530	407.279
797.658	405.760
797.787	420.712
797.915	411.365
798.043	400.471
798.171	410.981
798.299	397.096
798.427	409.029
798.555	414.192
798.683	399.962
798.812	429.990
798.940	449.606
799.068	431.567
799.196	408.365
799.324	404.231
799.452	393.846
799.580	396.269
799.708	400.375
799.837	391.615
799.965	395.317
800.093	391.000
800.221	385.250
800.349	387.308
800.477	383.019
800.605	379.577
800.733	393.404
800.862	385.731
800.990	379.442
801.118	378.365
801.246	383.856
801.374	390.846
801.502	377.904
801.630	375.567
801.758	379.038
801.887	366.567
802.015	376.885
802.143	372.048
802.271	374.356
802.399	367.000
802.527	364.673
802.655	368.760
802.783	367.779
802.912	366.452
803.040	366.375
803.168	364.010
803.296	373.538
803.424	361.721
803.552	365.548
803.680	366.702
803.808	361.567
803.937	361.731
804.065	359.481
804.193	362.779
804.321	377.433
804.449	375.067
804.577	364.365
804.705	378.971
804.833	358.462
804.962	357.250
805.090	353.808
805.218	345.827
805.346	354.750
805.474	364.154
805.602	358.933
805.730	365.827
805.858	343.779
805.987	343.192
806.115	345.702
806.243	350.827
806.371	348.385
806.499	344.288
806.627	347.769
806.755	346.856
806.883	348.250
807.012	347.144
807.140	351.596
807.268	332.375
807.396	340.183
807.524	338.067
807.652	346.529
807.780	340.490
807.908	339.115
808.037	352.346
808.165	342.615
808.293	329.481
808.421	333.029
808.549	338.394
808.677	333.827
808.805	348.721
808.933	330.163
809.062	329.606
809.190	342.385
809.318	333.500
809.446	328.212
809.574	337.202
809.702	324.798
809.830	320.740
809.958	334.760
810.087	334.558
810.215	320.173
810.343	334.721
810.471	326.654
810.599	315.365
810.727	331.798
810.855	322.327
810.983	328.750
811.112	318.798
811.240	320.010
811.368	323.913
811.496	327.106
811.624	318.750
811.752	319.625
811.880	334.288
812.008	321.788
812.137	327.029
812.265	319.606
812.393	323.337
812.521	314.356
812.649	317.971
812.777	310.029
812.905	320.413
813.033	325.942
813.162	312.760
813.290	306.721
813.418	315.058
813.546	312.558
813.674	308.317
813.802	307.538
813.930	304.346
814.058	304.712
814.187	306.317
814.315	306.510
814.443	303.010
814.571	304.712
814.699	298.404
814.827	305.135
814.955	309.173
815.083	294.894
815.212	307.606
815.340	296.644
815.468	306.067
815.596	294.558
815.724	300.192
815.852	301.635
815.980	298.798
816.108	302.135
816.237	300.077
816.365	308.221
816.493	298.423
816.621	304.548
816.749	291.240
816.877	357.125
817.005	312.202
817.133	297.952
817.262	295.173
817.390	289.654
817.518	299.865
817.646	289.500
817.774	286.519
817.902	282.000
818.030	285.452
818.158	290.000
818.287	289.269
818.415	287.558
818.543	286.212
818.671	287.163
818.799	282.683
818.927	280.923
819.055	310.490
819.183	286.087
819.312	303.298
819.440	284.202
819.568	274.635
819.696	277.846
819.824	284.058
819.952	283.606
820.080	282.481
820.208	276.462
820.337	282.058
820.465	274.769
820.593	279.635
820.721	276.394
820.849	274.538
820.977	271.240
821.105	279.423
821.233	270.154
821.362	278.644
821.490	273.663
821.618	280.529
821.746	283.923
821.874	269.250
822.002	264.077
822.130	272.038
822.258	272.019
822.387	268.933
822.515	277.202
822.643	270.788
822.771	265.577
822.899	271.779
823.027	265.058
823.155	269.010
823.283	283.644
823.412	272.221
823.540	261.058
823.668	260.971
823.796	265.596
823.924	261.837
824.052	265.173
824.180	263.933
824.308	263.740
824.437	276.144
824.565	264.577
824.693	254.500
824.821	256.019
824.949	265.462
825.077	260.788
825.205	252.125
825.333	258.760
825.462	259.885
825.590	255.317
825.718	254.029
825.846	257.038
825.974	259.760
826.102	252.817
826.230	259.058
826.358	259.865
826.487	261.990
826.615	254.731
826.743	247.519
826.871	258.567
826.999	251.115
827.127	257.154
827.255	251.452
827.383	247.423
827.512	250.558
827.640	258.837
827.768	273.471
827.896	244.548
828.024	256.106
828.152	247.115
828.280	249.154
828.408	243.654
828.537	250.356
828.665	243.135
828.793	244.365
828.921	247.029
829.049	247.538
829.177	249.519
829.305	240.288
829.433	241.817
829.562	241.673
829.690	243.154
829.818	244.856
829.946	240.067
830.074	239.327
830.202	238.231
830.330	242.904
830.458	230.269
830.587	246.067
830.715	236.019
830.843	232.048
830.971	244.202
831.099	237.038
831.227	268.971
831.355	237.375
831.483	236.865
831.612	237.125
831.740	229.327
831.868	236.269
831.996	240.500
832.124	235.567
832.252	240.933
832.380	231.433
832.508	232.740
832.637	230.808
832.765	239.750
832.893	232.740
833.021	230.240
833.149	231.375
833.277	229.144
833.405	236.760
833.533	222.837
833.662	234.654
833.790	226.625
833.918	233.413
834.046	227.904
834.174	223.154
834.302	231.837
834.430	225.317
834.558	223.971
834.687	228.923
834.815	225.298
834.943	224.000
835.071	227.125
835.199	229.308
835.327	220.433
835.455	233.663
835.583	224.356
835.712	222.760
835.840	226.087
835.968	220.635
836.096	233.510
836.224	217.481
836.352	223.125
836.480	221.317
836.608	214.750
836.737	224.702
836.865	217.115
836.993	227.269
837.121	233.346
837.249	222.019
837.377	213.385
837.505	211.817
837.633	219.106
837.762	223.596
837.890	220.962
838.018	219.279
838.146	213.442
838.274	220.087
838.402	214.173
838.530	231.490
838.658	223.644
838.787	224.933
838.915	211.221
839.043	224.308
839.171	209.577
839.299	219.481
839.427	234.260
839.555	224.269
839.683	209.231
839.812	215.135
839.940	208.712
840.068	215.721
840.196	240.365
840.324	233.625
840.452	220.337
840.580	211.327
840.708	200.260
840.837	210.067
840.965	211.308
841.093	206.923
841.221	212.298
841.349	209.865
841.477	205.933
841.605	206.779
841.733	206.808
841.862	212.625
841.990	211.202
842.118	209.087
842.246	208.125
842.374	199.519
842.502	217.702
842.630	206.904
842.758	201.308
842.887	213.587
843.015	221.413
843.143	202.000
843.271	204.981
843.399	204.413
843.527	206.769
843.655	202.385
843.783	204.731
843.912	202.490
844.040	198.250
844.168	205.856
844.296	217.327
844.424	207.875
844.552	206.452
844.680	208.952
844.808	202.692
844.937	199.298
845.065	198.798
845.193	212.587
845.321	207.385
845.449	211.077
845.577	200.788
845.705	198.452
845.833	201.654
845.962	208.010
846.090	200.327
846.218	214.010
846.346	206.923
846.474	204.712
846.602	193.577
846.730	204.308
846.858	193.740
846.987	195.779
847.115	207.471
847.243	210.558
847.371	189.875
847.499	195.471
847.627	197.067
847.755	195.317
847.883	203.885
848.012	206.875
848.140	189.702
848.268	195.154
848.396	193.712
848.524	203.394
848.652	193.971
848.780	189.962
848.908	197.760
849.037	196.894
849.165	190.644
849.293	200.817
849.421	193.106
849.549	197.346
849.677	193.173
849.805	202.385
849.933	190.135
850.062	195.510
850.190	194.913
850.318	189.663
850.446	194.163
850.574	194.990
850.702	190.971
850.830	187.846
850.958	192.115
851.087	197.163
851.215	189.798
851.343	188.952
851.471	191.933
851.599	196.981
851.727	201.769
851.855	191.692
851.983	197.885
852.112	186.019
852.240	197.500
852.368	199.413
852.496	188.827
852.624	191.471
852.752	196.125
852.880	189.827
853.008	191.865
853.137	191.029
853.265	193.538
853.393	191.048
853.521	185.942
853.649	193.952
853.777	186.365
853.905	185.173
854.033	185.904
854.162	184.106
854.290	190.567
854.418	201.173
854.546	213.144
854.674	203.115
854.802	188.423
854.930	180.106
855.058	191.673
855.187	181.760
855.315	207.837
855.443	183.231
855.571	183.279
855.699	195.288
855.827	177.885
855.955	182.683
856.083	186.490
856.212	185.048
856.340	186.260
856.468	187.038
856.596	187.010
856.724	191.394
856.852	198.577
856.980	178.452
857.108	180.144
857.237	175.990
857.365	190.038
857.493	187.692
857.621	183.394
857.749	181.856
857.877	182.423
858.005	179.010
858.133	182.596
858.262	180.279
858.390	176.375
858.518	175.731
858.646	186.135
858.774	174.529
858.902	176.769
859.030	181.471
859.158	183.500
859.287	183.567
859.415	182.317
859.543	180.519
859.671	181.808
859.799	189.394
859.927	180.712
860.055	174.596
860.183	174.760
860.312	172.635
860.440	182.394
860.568	172.298
860.696	183.385
860.824	186.894
860.952	175.308
861.080	179.808
861.208	178.260
861.337	178.952
861.465	185.327
861.593	177.058
861.721	182.317
861.849	184.644
861.977	177.837
862.105	179.731
862.233	177.144
862.362	172.548
862.490	174.173
862.618	172.327
862.746	176.904
862.874	177.769
863.002	178.471
863.130	179.740
863.258	176.135
863.387	182.644
863.515	179.279
863.643	183.875
863.771	181.500
863.899	178.817
864.027	180.654
864.155	199.433
864.283	176.019
864.412	170.875
864.540	180.538
864.668	171.183
864.796	170.096
864.924	175.779
865.052	169.481
865.180	187.798
865.308	174.760
865.437	175.904
865.565	169.058
865.693	169.471
865.821	167.481
865.949	190.875
866.077	173.462
866.205	175.250
866.333	177.894
866.462	167.308
866.590	182.538
866.718	174.221
866.846	168.375
866.974	175.981
867.102	167.865
867.230	181.644
867.358	173.538
867.487	177.885
867.615	186.587
867.743	170.538
867.871	176.240
867.999	176.077
868.127	181.423
868.255	185.654
868.383	167.144
868.512	173.990
868.640	173.548
868.768	171.452
868.896	183.971
869.024	169.125
869.152	171.038
869.280	168.760
869.408	167.144
869.537	169.144
869.665	167.202
869.793	170.087
869.921	169.865
870.049	163.510
870.177	171.971
870.305	163.471
870.433	169.240
870.562	174.087
870.690	169.154
870.818	178.596
870.946	170.712
871.074	163.144
871.202	170.644
871.330	164.933
871.458	170.462
871.587	170.471
871.715	168.202
871.843	173.077
871.971	177.298
872.099	162.587
872.227	171.029
872.355	167.183
872.483	163.683
872.612	170.106
872.740	169.596
872.868	164.952
872.996	167.173
873.124	178.577
873.252	167.788
873.380	163.663
873.508	173.740
873.637	175.510
873.765	162.413
873.893	164.260
874.021	171.606
874.149	168.952
874.277	168.433
874.405	171.337
874.533	176.923
874.662	163.404
874.790	173.231
874.918	165.635
875.046	171.077
875.174	166.913
875.302	164.240
875.430	162.154
875.558	170.625
875.687	175.827
875.815	168.163
875.943	171.663
876.071	170.875
876.199	167.221
876.327	167.462
876.455	167.288
876.583	166.231
876.712	174.375
876.840	170.356
876.968	165.885
877.096	168.125
877.224	169.212
877.352	162.615
877.480	170.827
877.608	177.202
877.737	169.240
877.865	163.096
877.993	168.673
878.121	174.250
878.249	162.548
878.377	161.433
878.505	172.087
878.633	168.096
878.762	160.038
878.890	163.558
879.018	171.308
879.146	165.596
879.274	191.298
879.402	170.827
879.530	162.721
879.658	168.250
879.787	169.000
879.915	163.856
880.043	162.067
880.171	197.942
880.299	170.192
880.427	172.577
880.555	159.606
880.683	170.817
880.812	165.019
880.940	165.942
881.068	172.904
881.196	163.192
881.324	162.096
881.452	164.452
881.580	165.490
881.708	172.933
881.837	168.615
881.965	166.827
882.093	157.433
882.221	159.413
882.349	156.529
882.477	163.490
882.605	169.038
882.733	169.154
882.862	163.240
882.990	176.000
883.118	168.750
883.246	170.731
883.374	164.481
883.502	170.000
883.630	167.702
883.758	160.760
883.887	169.904
884.015	165.702
884.143	171.240
884.271	163.990
884.399	163.240
884.527	170.663
884.655	162.894
884.783	166.183
884.912	186.606
885.040	173.606
885.168	160.173
885.296	173.308
885.424	166.173
885.552	166.865
885.680	180.000
885.808	173.019
885.937	172.577
886.065	175.346
886.193	162.673
886.321	163.587
886.449	164.173
886.577	160.933
886.705	173.288
886.833	156.712
886.962	166.750
887.090	165.173
887.218	163.827
887.346	164.904
887.474	157.721
887.602	162.567
887.730	160.423
887.858	161.817
887.987	161.683
888.115	165.183
888.243	159.981
888.371	176.548
888.499	163.202
888.627	157.683
888.755	169.288
888.883	165.875
889.012	169.163
889.140	161.337
889.268	168.173
889.396	158.625
889.524	171.673
889.652	155.779
889.780	161.202
889.908	163.327
890.037	170.808
890.165	162.010
890.293	166.442
890.421	166.875
890.549	158.269
890.677	158.712
890.805	165.413
890.933	158.058
891.062	163.413
891.190	169.356
891.318	159.154
891.446	163.010
891.574	155.865
891.702	162.173
891.830	164.750
891.958	172.346
892.087	169.192
892.215	164.288
892.343	166.558
892.471	168.269
892.599	157.452
892.727	164.538
892.855	180.952
892.983	155.702
893.112	160.567
893.240	172.721
893.368	158.933
893.496	169.769
893.624	168.375
893.752	186.904
893.880	167.962
894.008	165.317
894.137	164.721
894.265	169.875
894.393	160.933
894.521	168.481
894.649	162.000
894.777	157.192
894.905	197.260
895.033	159.019
895.162	161.404
895.290	165.721
895.418	166.673
895.546	196.250
895.674	163.202
895.802	205.760
895.930	164.558
896.058	159.202
896.187	161.404
896.315	158.933
896.443	171.750
896.571	184.683
896.699	159.500
896.827	163.077
896.955	163.135
897.083	166.077
897.212	163.471
897.340	161.404
897.468	161.962
897.596	158.769
897.724	157.356
897.852	156.192
897.980	156.163
898.108	168.971
898.237	161.558
898.365	157.933
898.493	164.394
898.621	159.019
898.749	161.413
898.877	163.942
899.005	161.635
899.133	161.865
899.262	174.779
899.390	162.731
899.518	166.173
899.646	158.471
899.774	155.731
899.902	158.712
900.030	171.788
900.158	161.933
900.287	161.962
900.415	156.644
900.543	166.375
900.671	167.019
900.799	159.510
900.927	157.490
901.055	170.279
901.183	167.615
901.312	168.279
901.440	155.260
901.568	155.500
901.696	160.548
901.824	157.115
901.952	157.606
902.080	163.673
902.208	160.750
902.337	169.240
902.465	158.798
902.593	173.308
902.721	182.500
902.849	180.913
902.977	164.115
903.105	161.365
903.233	164.173
903.362	155.567
903.490	170.510
903.618	164.269
903.746	156.788
903.874	163.067
904.002	160.288
904.130	170.798
904.258	153.231
904.387	165.269
904.515	152.462
904.643	161.183
904.771	156.346
904.899	160.413
905.027	163.279
905.155	158.779
905.283	157.144
905.412	175.106
905.540	161.327
905.668	160.846
905.796	161.173
905.924	161.038
906.052	159.933
906.180	161.740
906.308	158.404
906.437	156.990
906.565	162.433
906.693	171.385
906.821	156.673
906.949	160.654
907.077	155.654
907.205	166.952
907.333	155.269
907.462	159.519
907.590	159.567
907.718	158.817
907.846	166.788
907.974	156.481
908.102	159.144
908.230	161.827
908.358	157.183
908.487	155.029
908.615	169.683
908.743	170.077
908.871	162.740
908.999	157.962
909.127	162.904
909.255	169.500
909.383	153.798
909.512	155.712
909.640	169.010
909.768	159.442
909.896	165.837
910.024	166.154
910.152	168.558
910.280	169.154
910.408	159.827
910.537	158.971
910.665	165.231
910.793	160.471
910.921	166.798
911.049	170.231
911.177	169.250
911.305	163.115
911.433	187.077
911.562	164.365
911.690	168.394
911.818	163.462
911.946	162.260
912.074	167.000
912.202	163.163
912.330	179.231
912.458	157.510
912.587	163.933
912.715	166.106
912.843	175.913
912.971	169.163
913.099	184.125
913.227	172.135
913.355	169.327
913.483	179.981
913.612	175.942
913.740	198.894
913.868	171.308
