sample16h_at_750.00nm_cut_at_1060.50Y_01.dat
19.06.2023
11:23:48
cut middle at Y: 1060.50
top cursor: 1109 down cursor: 1012 mean of: 97 lines , 2560 datapoints
wavelength(nm)	intensity[arb. units]
585.996	808.247
586.124	791.732
586.252	788.660
586.380	789.753
586.508	781.237
586.637	787.876
586.765	788.113
586.893	791.113
587.021	796.969
587.149	794.206
587.277	790.402
587.405	805.835
587.533	801.216
587.662	793.124
587.790	798.299
587.918	797.959
588.046	804.361
588.174	800.186
588.302	798.773
588.430	812.381
588.558	801.536
588.687	806.474
588.815	813.876
588.943	813.866
589.071	805.113
589.199	810.959
589.327	812.113
589.455	813.082
589.583	816.371
589.712	815.773
589.840	818.588
589.968	818.433
590.096	819.175
590.224	819.567
590.352	817.103
590.480	828.412
590.608	821.289
590.737	815.320
590.865	827.907
590.993	830.289
591.121	822.835
591.249	827.052
591.377	830.412
591.505	828.577
591.633	822.124
591.762	838.546
591.890	831.649
592.018	828.835
592.146	841.505
592.274	831.299
592.402	832.907
592.530	840.969
592.658	823.845
592.787	829.175
592.915	837.680
593.043	833.825
593.171	830.485
593.299	839.773
593.427	837.918
593.555	840.351
593.683	832.175
593.812	837.804
593.940	843.381
594.068	842.340
594.196	851.216
594.324	842.464
594.452	856.134
594.580	857.804
594.708	844.423
594.837	851.773
594.965	859.546
595.093	851.969
595.221	856.907
595.349	859.299
595.477	854.567
595.605	859.320
595.733	875.938
595.862	863.155
595.990	869.361
596.118	862.268
596.246	875.175
596.374	865.546
596.502	878.505
596.630	869.897
596.758	881.732
596.887	877.330
597.015	883.918
597.143	873.454
597.271	880.423
597.399	869.381
597.527	886.144
597.655	883.763
597.783	880.887
597.912	877.907
598.040	878.351
598.168	882.320
598.296	880.660
598.424	877.340
598.552	882.928
598.680	871.639
598.808	879.701
598.937	885.732
599.065	885.175
599.193	873.351
599.321	877.062
599.449	887.278
599.577	889.072
599.705	887.876
599.833	890.526
599.962	876.588
600.090	879.474
600.218	883.216
600.346	889.495
600.474	883.629
600.602	889.361
600.730	889.361
600.858	886.918
600.987	884.258
601.115	887.608
601.243	884.031
601.371	892.485
601.499	893.186
601.627	887.588
601.755	896.794
601.883	889.196
602.012	904.041
602.140	894.361
602.268	897.216
602.396	907.536
602.524	897.629
602.652	915.299
602.780	902.464
602.908	917.247
603.037	917.000
603.165	917.361
603.293	926.103
603.421	927.423
603.549	922.990
603.677	924.526
603.805	914.402
603.933	927.093
604.062	928.918
604.190	933.784
604.318	933.784
604.446	935.608
604.574	932.660
604.702	932.330
604.830	937.918
604.958	945.577
605.087	952.577
605.215	948.711
605.343	952.742
605.471	957.237
605.599	957.186
605.727	960.433
605.855	959.567
605.983	952.835
606.112	966.052
606.240	964.732
606.368	967.103
606.496	957.722
606.624	967.876
606.752	959.608
606.880	968.876
607.008	967.660
607.137	967.515
607.265	978.567
607.393	977.546
607.521	976.072
607.649	965.505
607.777	967.588
607.905	960.866
608.033	979.897
608.162	972.021
608.290	975.557
608.418	980.124
608.546	969.423
608.674	983.784
608.802	970.732
608.930	973.515
609.058	971.711
609.187	968.814
609.315	968.629
609.443	969.144
609.571	974.536
609.699	978.856
609.827	975.113
609.955	965.412
610.083	975.021
610.212	963.619
610.340	969.505
610.468	966.258
610.596	976.629
610.724	967.619
610.852	970.660
610.980	972.897
611.108	966.711
611.237	972.021
611.365	963.866
611.493	977.629
611.621	982.010
611.749	985.381
611.877	981.722
612.005	971.062
612.133	971.907
612.262	973.454
612.390	974.454
612.518	984.103
612.646	979.392
612.774	977.423
612.902	989.371
613.030	980.969
613.158	989.340
613.287	996.691
613.415	993.062
613.543	997.093
613.671	991.289
613.799	995.753
613.927	996.474
614.055	995.320
614.183	1002.155
614.312	997.186
614.440	1000.474
614.568	1007.567
614.696	1005.814
614.824	1007.804
614.952	1010.866
615.080	1008.763
615.208	1012.093
615.337	1011.608
615.465	1012.557
615.593	1014.041
615.721	1014.773
615.849	1024.670
615.977	1020.670
616.105	1016.289
616.233	1022.918
616.362	1022.804
616.490	1015.649
616.618	1027.907
616.746	1020.722
616.874	1023.113
617.002	1033.052
617.130	1028.124
617.258	1035.876
617.387	1020.433
617.515	1030.443
617.643	1035.082
617.771	1030.639
617.899	1035.557
618.027	1022.031
618.155	1031.402
618.283	1019.381
618.412	1029.309
618.540	1030.216
618.668	1034.155
618.796	1025.289
618.924	1028.814
619.052	1032.062
619.180	1032.608
619.308	1040.629
619.437	1032.948
619.565	1046.918
619.693	1036.216
619.821	1036.969
619.949	1038.186
620.077	1037.082
620.205	1042.309
620.333	1041.289
620.462	1045.938
620.590	1043.144
620.718	1048.660
620.846	1042.093
620.974	1048.351
621.102	1041.320
621.230	1049.299
621.358	1051.247
621.487	1050.010
621.615	1051.649
621.743	1043.041
621.871	1043.155
621.999	1038.536
622.127	1046.299
622.255	1047.351
622.383	1032.918
622.512	1047.371
622.640	1045.113
622.768	1039.773
622.896	1037.845
623.024	1035.897
623.152	1058.464
623.280	1050.361
623.408	1048.340
623.537	1045.639
623.665	1055.258
623.793	1058.216
623.921	1050.526
624.049	1042.041
624.177	1056.928
624.305	1046.804
624.433	1064.773
624.562	1050.299
624.690	1044.227
624.818	1050.381
624.946	1054.031
625.074	1046.907
625.202	1051.969
625.330	1039.876
625.458	1054.082
625.587	1056.938
625.715	1045.701
625.843	1052.351
625.971	1049.763
626.099	1045.299
626.227	1049.082
626.355	1041.082
626.483	1056.340
626.612	1048.134
626.740	1050.938
626.868	1050.536
626.996	1047.381
627.124	1051.340
627.252	1045.866
627.380	1042.464
627.508	1047.113
627.637	1047.639
627.765	1044.856
627.893	1054.258
628.021	1040.165
628.149	1049.495
628.277	1045.639
628.405	1054.546
628.533	1049.124
628.662	1038.113
628.790	1055.165
628.918	1046.268
629.046	1065.124
629.174	1039.629
629.302	1053.351
629.430	1056.567
629.558	1050.082
629.687	1052.670
629.815	1053.711
629.943	1049.825
630.071	1053.711
630.199	1050.598
630.327	1058.784
630.455	1045.371
630.583	1053.113
630.712	1049.320
630.840	1059.010
630.968	1070.206
631.096	1068.031
631.224	1049.392
631.352	1050.691
631.480	1061.186
631.608	1057.340
631.737	1059.784
631.865	1062.433
631.993	1060.577
632.121	1053.351
632.249	1060.495
632.377	1063.340
632.505	1051.619
632.633	1047.701
632.762	1055.082
632.890	1059.979
633.018	1056.041
633.146	1060.567
633.274	1056.474
633.402	1048.557
633.530	1053.979
633.658	1063.392
633.787	1052.000
633.915	1047.608
634.043	1048.557
634.171	1049.825
634.299	1053.897
634.427	1053.557
634.555	1057.278
634.683	1051.814
634.812	1043.979
634.940	1054.474
635.068	1047.722
635.196	1045.381
635.324	1052.691
635.452	1054.701
635.580	1041.660
635.708	1049.072
635.837	1042.732
635.965	1037.124
636.093	1031.546
636.221	1044.464
636.349	1043.165
636.477	1027.309
636.605	1036.351
636.733	1035.784
636.862	1026.546
636.990	1020.598
637.118	1019.186
637.246	1016.237
637.374	1025.959
637.502	1017.381
637.630	1031.794
637.758	1015.711
637.887	1014.392
638.015	1005.918
638.143	1023.577
638.271	1006.206
638.399	1013.794
638.527	1015.979
638.655	1011.103
638.783	1007.670
638.912	1012.526
639.040	1012.000
639.168	1001.175
639.296	999.722
639.424	1006.412
639.552	1005.021
639.680	1004.052
639.808	997.010
639.937	999.454
640.065	997.134
640.193	999.598
640.321	993.216
640.449	1000.629
640.577	1000.918
640.705	998.887
640.833	997.907
640.962	1000.814
641.090	996.309
641.218	994.835
641.346	992.031
641.474	989.474
641.602	991.237
641.730	998.619
641.858	998.814
641.987	987.979
642.115	989.557
642.243	990.134
642.371	996.155
642.499	992.155
642.627	991.701
642.755	997.289
642.883	1000.928
643.012	992.546
643.140	991.711
643.268	992.546
643.396	991.330
643.524	1000.443
643.652	992.835
643.780	984.711
643.908	991.278
644.037	992.866
644.165	983.526
644.293	990.206
644.421	987.701
644.549	997.928
644.677	988.619
644.805	1001.722
644.933	989.278
645.062	984.268
645.190	985.804
645.318	977.464
645.446	997.629
645.574	998.485
645.702	985.268
645.830	987.804
645.958	996.763
646.087	979.454
646.215	983.289
646.343	989.814
646.471	989.660
646.599	986.515
646.727	978.711
646.855	973.433
646.983	982.010
647.112	982.567
647.240	983.742
647.368	969.732
647.496	975.969
647.624	980.155
647.752	970.577
647.880	974.711
648.008	968.742
648.137	968.289
648.265	969.247
648.393	969.567
648.521	965.660
648.649	966.887
648.777	965.103
648.905	954.062
649.033	951.144
649.162	946.691
649.290	941.423
649.418	946.598
649.546	945.433
649.674	947.247
649.802	948.691
649.930	944.072
650.058	942.856
650.187	949.938
650.315	945.423
650.443	945.773
650.571	948.381
650.699	939.804
650.827	949.196
650.955	939.701
651.083	937.031
651.212	938.041
651.340	941.990
651.468	932.722
651.596	928.918
651.724	930.196
651.852	928.515
651.980	925.392
652.108	926.928
652.237	922.948
652.365	920.598
652.493	926.361
652.621	922.608
652.749	920.763
652.877	922.361
653.005	923.237
653.133	923.155
653.262	923.866
653.390	912.474
653.518	918.320
653.646	913.103
653.774	914.052
653.902	918.082
654.030	912.320
654.158	906.990
654.287	914.155
654.415	906.320
654.543	900.969
654.671	890.918
654.799	899.268
654.927	893.330
655.055	897.485
655.183	893.722
655.312	895.175
655.440	900.124
655.568	888.619
655.696	901.021
655.824	891.412
655.952	886.289
656.080	881.835
656.208	884.856
656.337	879.412
656.465	890.258
656.593	883.670
656.721	882.515
656.849	886.062
656.977	877.196
657.105	885.000
657.233	868.629
657.362	866.495
657.490	866.361
657.618	875.206
657.746	869.825
657.874	866.227
658.002	865.082
658.130	867.237
658.258	867.423
658.387	862.423
658.515	853.979
658.643	854.124
658.771	859.660
658.899	846.835
659.027	859.608
659.155	857.804
659.283	846.773
659.412	848.196
659.540	845.691
659.668	852.825
659.796	843.124
659.924	848.680
660.052	849.031
660.180	835.948
660.308	845.918
660.437	836.412
660.565	841.670
660.693	838.474
660.821	835.691
660.949	840.247
661.077	830.010
661.205	834.948
661.333	825.278
661.462	833.608
661.590	835.515
661.718	830.505
661.846	823.031
661.974	831.103
662.102	827.062
662.230	826.031
662.358	826.753
662.487	816.660
662.615	822.062
662.743	827.258
662.871	819.825
662.999	826.660
663.127	821.082
663.255	812.598
663.383	821.742
663.512	813.206
663.640	818.866
663.768	816.722
663.896	821.969
664.024	820.608
664.152	812.887
664.280	814.897
664.408	809.979
664.537	814.979
664.665	804.887
664.793	804.866
664.921	798.866
665.049	807.773
665.177	804.299
665.305	800.237
665.433	802.784
665.562	798.052
665.690	800.381
665.818	800.010
665.946	796.433
666.074	797.082
666.202	796.072
666.330	791.598
666.458	798.268
666.587	792.062
666.715	795.392
666.843	793.062
666.971	785.701
667.099	796.732
667.227	787.546
667.355	783.691
667.483	793.155
667.612	779.186
667.740	784.010
667.868	785.402
667.996	777.979
668.124	779.330
668.252	784.165
668.380	780.052
668.508	786.639
668.637	774.031
668.765	772.856
668.893	779.629
669.021	772.680
669.149	775.124
669.277	767.577
669.405	766.474
669.533	772.990
669.662	767.423
669.790	756.938
669.918	770.144
670.046	766.155
670.174	764.660
670.302	762.495
670.430	756.773
670.558	756.660
670.687	761.505
670.815	750.773
670.943	752.464
671.071	750.031
671.199	740.392
671.327	746.340
671.455	735.082
671.583	742.577
671.712	737.515
671.840	740.062
671.968	741.093
672.096	741.495
672.224	741.979
672.352	731.907
672.480	732.742
672.608	723.402
672.737	724.887
672.865	726.258
672.993	718.330
673.121	720.000
673.249	716.021
673.377	726.227
673.505	718.835
673.633	716.732
673.762	710.165
673.890	714.804
674.018	708.206
674.146	706.722
674.274	714.722
674.402	699.825
674.530	701.722
674.658	704.443
674.787	689.206
674.915	695.515
675.043	700.979
675.171	688.608
675.299	696.041
675.427	688.392
675.555	694.485
675.683	691.495
675.812	685.907
675.940	678.897
676.068	680.124
676.196	678.237
676.324	680.763
676.452	674.412
676.580	674.412
676.708	665.124
676.837	675.021
676.965	672.361
677.093	675.948
677.221	679.619
677.349	667.691
677.477	673.227
677.605	660.856
677.733	668.732
677.862	660.165
677.990	663.041
678.118	654.639
678.246	652.103
678.374	646.443
678.502	654.000
678.630	649.825
678.758	649.361
678.887	653.247
679.015	652.629
679.143	638.010
679.271	643.495
679.399	640.536
679.527	640.268
679.655	639.052
679.783	637.165
679.912	635.320
680.040	634.928
680.168	631.763
680.296	630.990
680.424	633.454
680.552	627.247
680.680	635.289
680.808	628.247
680.937	626.701
681.065	625.608
681.193	621.371
681.321	616.031
681.449	623.320
681.577	616.082
681.705	611.340
681.833	612.680
681.962	610.814
682.090	621.443
682.218	621.732
682.346	616.299
682.474	616.206
682.602	615.866
682.730	607.361
682.858	604.825
682.987	613.268
683.115	606.979
683.243	607.515
683.371	607.876
683.499	599.990
683.627	605.773
683.755	600.227
683.883	600.515
684.012	598.742
684.140	591.443
684.268	591.340
684.396	594.371
684.524	597.979
684.652	591.969
684.780	600.887
684.908	595.237
685.037	591.784
685.165	586.237
685.293	593.278
685.421	595.206
685.549	586.990
685.677	588.330
685.805	585.495
685.933	598.052
686.062	583.577
686.190	591.887
686.318	582.454
686.446	588.371
686.574	573.247
686.702	589.691
686.830	581.670
686.958	579.371
687.087	579.577
687.215	579.309
687.343	572.701
687.471	575.340
687.599	575.485
687.727	572.268
687.855	576.825
687.983	575.711
688.112	577.804
688.240	570.454
688.368	575.835
688.496	569.041
688.624	567.258
688.752	571.928
688.880	566.021
689.008	566.072
689.137	567.557
689.265	569.258
689.393	557.546
689.521	561.062
689.649	557.536
689.777	559.670
689.905	565.113
690.033	559.804
690.162	557.918
690.290	554.371
690.418	551.691
690.546	554.227
690.674	560.216
690.802	539.289
690.930	548.443
691.058	542.546
691.187	542.041
691.315	545.402
691.443	540.711
691.571	535.639
691.699	538.856
691.827	537.144
691.955	530.392
692.083	536.897
692.212	523.629
692.340	537.928
692.468	530.206
692.596	527.103
692.724	522.433
692.852	529.216
692.980	525.103
693.108	514.670
693.237	522.546
693.365	519.753
693.493	520.495
693.621	519.423
693.749	512.515
693.877	505.825
694.005	509.598
694.133	516.722
694.262	508.804
694.390	510.670
694.518	503.794
694.646	509.577
694.774	505.175
694.902	499.948
695.030	499.773
695.158	498.784
695.287	495.753
695.415	496.093
695.543	498.794
695.671	498.629
695.799	489.392
695.927	490.000
696.055	486.887
696.183	490.041
696.312	488.536
696.440	485.340
696.568	484.701
696.696	488.928
696.824	479.948
696.952	477.804
697.080	481.495
697.208	480.619
697.337	480.845
697.465	475.320
697.593	471.897
697.721	468.371
697.849	472.371
697.977	474.165
698.105	473.052
698.233	470.536
698.362	467.351
698.490	472.784
698.618	468.155
698.746	462.454
698.874	461.814
699.002	465.515
699.130	461.134
699.258	463.619
699.387	457.979
699.515	453.361
699.643	456.804
699.771	454.577
699.899	460.021
700.027	455.082
700.155	454.835
700.283	452.742
700.412	446.412
700.540	445.546
700.668	444.165
700.796	447.485
700.924	441.897
701.052	441.680
701.180	445.330
701.308	439.784
701.437	439.598
701.565	434.330
701.693	434.722
701.821	431.938
701.949	438.598
702.077	434.557
702.205	438.330
702.333	431.412
702.462	431.175
702.590	430.794
702.718	427.330
702.846	427.021
702.974	421.722
703.102	422.515
703.230	422.423
703.358	414.876
703.487	418.649
703.615	413.835
703.743	411.474
703.871	409.856
703.999	411.866
704.127	414.794
704.255	408.278
704.383	404.701
704.512	406.485
704.640	403.856
704.768	401.969
704.896	401.536
705.024	403.247
705.152	398.062
705.280	399.124
705.408	392.773
705.537	396.876
705.665	394.072
705.793	396.268
705.921	389.021
706.049	391.247
706.177	393.557
706.305	393.134
706.433	384.722
706.562	385.577
706.690	384.753
706.818	386.278
706.946	384.144
707.074	380.412
707.202	378.577
707.330	378.227
707.458	381.866
707.587	376.423
707.715	372.093
707.843	378.103
707.971	373.876
708.099	377.876
708.227	370.928
708.355	371.258
708.483	371.052
708.612	365.536
708.740	371.918
708.868	365.268
708.996	363.113
709.124	361.186
709.252	360.454
709.380	364.216
709.508	363.948
709.637	363.753
709.765	356.165
709.893	358.010
710.021	361.124
710.149	359.454
710.277	358.124
710.405	355.093
710.533	353.216
710.662	347.608
710.790	350.773
710.918	351.381
711.046	352.072
711.174	351.433
711.302	348.505
711.430	351.206
711.558	349.485
711.687	347.660
711.815	346.856
711.943	350.021
712.071	348.567
712.199	348.082
712.327	343.567
712.455	341.773
712.583	346.082
712.712	345.299
712.840	342.381
712.968	340.000
713.096	342.907
713.224	337.701
713.352	338.907
713.480	340.454
713.608	337.258
713.737	338.701
713.865	334.979
713.993	333.948
714.121	333.629
714.249	337.206
714.377	331.959
714.505	334.186
714.633	331.340
714.762	330.938
714.890	329.907
715.018	330.990
715.146	327.227
715.274	325.546
715.402	326.515
715.530	330.443
715.658	329.639
715.787	329.691
715.915	322.381
716.043	323.948
716.171	325.052
716.299	320.897
716.427	322.041
716.555	323.639
716.683	326.773
716.812	325.526
716.940	325.763
717.068	321.979
717.196	319.216
717.324	318.464
717.452	316.577
717.580	311.660
717.708	316.979
717.837	313.907
717.965	319.794
718.093	311.433
718.221	308.423
718.349	311.680
718.477	311.918
718.605	307.371
718.733	313.402
718.862	308.485
718.990	310.876
719.118	307.742
719.246	305.907
719.374	306.052
719.502	311.773
719.630	302.918
719.758	308.918
719.887	308.773
720.015	308.021
720.143	301.155
720.271	304.897
720.399	300.505
720.527	300.464
720.655	302.113
720.783	297.969
720.912	296.887
721.040	300.670
721.168	296.371
721.296	292.103
721.424	291.948
721.552	293.309
721.680	287.536
721.808	290.330
721.937	288.464
722.065	292.619
722.193	287.722
722.321	288.072
722.449	286.196
722.577	284.773
722.705	282.938
722.833	284.052
722.962	284.072
723.090	283.278
723.218	280.134
723.346	279.897
723.474	281.722
723.602	278.031
723.730	275.907
723.858	278.423
723.987	276.732
724.115	276.918
724.243	270.753
724.371	273.299
724.499	276.155
724.627	275.381
724.755	270.526
724.883	273.031
725.012	267.454
725.140	269.144
725.268	275.485
725.396	272.021
725.524	266.557
725.652	267.495
725.780	262.907
725.908	263.268
726.037	264.979
726.165	262.722
726.293	258.155
726.421	261.392
726.549	256.814
726.677	258.052
726.805	259.825
726.933	260.103
727.062	255.649
727.190	256.732
727.318	254.990
727.446	257.299
727.574	261.546
727.702	255.763
727.830	258.052
727.958	252.103
728.087	253.031
728.215	249.742
728.343	247.814
728.471	255.536
728.599	248.680
728.727	253.876
728.855	250.433
728.983	250.072
729.112	246.464
729.240	248.010
729.368	246.773
729.496	246.505
729.624	245.340
729.752	249.041
729.880	242.485
730.008	243.969
730.137	238.969
730.265	242.897
730.393	240.536
730.521	239.660
730.649	238.371
730.777	233.278
730.905	234.928
731.033	235.876
731.162	242.866
731.290	234.856
731.418	232.351
731.546	235.186
731.674	232.433
731.802	232.495
731.930	230.474
732.058	230.835
732.187	234.371
732.315	233.732
732.443	236.753
732.571	228.866
732.699	237.711
732.827	227.010
732.955	228.825
733.083	232.052
733.212	226.278
733.340	232.680
733.468	224.629
733.596	230.320
733.724	223.433
733.852	228.412
733.980	222.680
734.108	223.485
734.237	223.052
734.365	219.340
734.493	226.144
734.621	222.969
734.749	224.320
734.877	222.000
735.005	221.866
735.133	218.082
735.262	223.845
735.390	218.495
735.518	219.237
735.646	216.897
735.774	222.412
735.902	220.794
736.030	218.825
736.158	220.351
736.287	215.557
736.415	219.835
736.543	217.052
736.671	216.680
736.799	217.753
736.927	216.979
737.055	214.000
737.183	215.742
737.312	216.196
737.440	214.505
737.568	219.526
737.696	214.093
737.824	217.299
737.952	210.711
738.080	212.722
738.208	209.309
738.337	211.072
738.465	211.082
738.593	207.258
738.721	210.680
738.849	213.567
738.977	211.660
739.105	209.361
739.233	206.938
739.362	206.990
739.490	207.567
739.618	208.474
739.746	209.814
739.874	206.876
740.002	208.144
740.130	201.557
740.258	204.732
740.387	206.361
740.515	207.299
740.643	208.062
740.771	207.464
740.899	208.691
741.027	201.784
741.155	202.247
741.283	204.289
741.412	202.856
741.540	201.588
741.668	205.041
741.796	201.381
741.924	200.495
742.052	199.206
742.180	199.330
742.308	200.216
742.437	199.196
742.565	194.969
742.693	196.021
742.821	199.856
742.949	195.722
743.077	195.072
743.205	202.072
743.333	198.433
743.462	198.784
743.590	193.371
743.718	196.278
743.846	195.351
743.974	193.722
744.102	192.639
744.230	196.464
744.358	194.598
744.487	191.825
744.615	194.722
744.743	191.928
744.871	190.412
744.999	190.825
745.127	188.557
745.255	186.742
745.383	190.021
745.512	189.959
745.640	188.629
745.768	190.619
745.896	183.186
746.024	188.381
746.152	183.814
746.280	186.701
746.408	186.588
746.537	188.918
746.665	187.557
746.793	186.907
746.921	187.392
747.049	182.732
747.177	184.515
747.305	181.505
747.433	182.660
747.562	186.072
747.690	180.124
747.818	184.701
747.946	184.495
748.074	184.330
748.202	183.268
748.330	181.804
748.458	184.990
748.587	183.897
748.715	178.536
748.843	178.134
748.971	180.206
749.099	181.299
749.227	177.155
749.355	178.505
749.483	178.959
749.612	180.381
749.740	177.753
749.868	177.031
749.996	173.577
750.124	176.546
750.252	177.392
750.380	179.196
750.508	178.598
750.637	172.928
750.765	174.979
750.893	177.856
751.021	175.474
751.149	178.021
751.277	172.773
751.405	176.082
751.533	175.423
751.662	178.103
751.790	174.691
751.918	175.526
752.046	172.835
752.174	170.959
752.302	169.134
752.430	171.454
752.558	172.784
752.687	170.515
752.815	169.918
752.943	169.381
753.071	169.773
753.199	169.814
753.327	171.701
753.455	167.320
753.583	168.814
753.712	168.309
753.840	167.371
753.968	169.485
754.096	165.928
754.224	166.680
754.352	165.804
754.480	164.474
754.608	164.907
754.737	162.629
754.865	166.814
754.993	166.990
755.121	166.546
755.249	162.371
755.377	165.629
755.505	165.278
755.633	165.175
755.762	161.948
755.890	160.227
756.018	161.371
756.146	159.670
756.274	160.196
756.402	163.814
756.530	161.526
756.658	161.742
756.787	161.289
756.915	159.124
757.043	159.206
757.171	161.289
757.299	156.804
757.427	157.784
757.555	157.485
757.683	157.660
757.812	157.144
757.940	159.247
758.068	158.423
758.196	159.175
758.324	156.753
758.452	155.309
758.580	154.031
758.708	158.031
758.837	157.206
758.965	153.753
759.093	152.979
759.221	155.680
759.349	154.361
759.477	155.825
759.605	153.392
759.733	153.825
759.862	154.845
759.990	154.557
760.118	151.299
760.246	151.670
760.374	150.505
760.502	151.742
760.630	151.948
760.758	150.887
760.887	148.701
761.015	147.505
761.143	148.990
761.271	149.433
761.399	149.330
761.527	152.010
761.655	148.237
761.783	150.691
761.912	147.402
762.040	146.990
762.168	144.804
762.296	145.000
762.424	147.505
762.552	144.247
762.680	144.485
762.808	145.454
762.937	145.216
763.065	142.268
763.193	145.021
763.321	145.938
763.449	146.124
763.577	142.309
763.705	144.598
763.833	145.784
763.962	139.515
764.090	141.309
764.218	142.845
764.346	142.660
764.474	141.928
764.602	141.144
764.730	143.196
764.858	142.443
764.987	141.402
765.115	140.423
765.243	141.443
765.371	142.113
765.499	139.454
765.627	141.021
765.755	138.485
765.883	137.567
766.012	137.464
766.140	138.825
766.268	138.351
766.396	139.093
766.524	137.814
766.652	139.773
766.780	137.258
766.908	137.093
767.037	139.206
767.165	136.928
767.293	139.227
767.421	138.773
767.549	137.557
767.677	137.670
767.805	138.309
767.933	135.216
768.062	137.381
768.190	135.320
768.318	136.330
768.446	138.495
768.574	135.887
768.702	135.948
768.830	137.278
768.958	134.093
769.087	138.361
769.215	136.804
769.343	135.505
769.471	138.010
769.599	137.361
769.727	137.763
769.855	135.629
769.983	133.227
770.112	136.990
770.240	137.072
770.368	135.206
770.496	136.371
770.624	136.701
770.752	136.753
770.880	134.062
771.008	134.505
771.137	134.412
771.265	134.155
771.393	135.814
771.521	135.103
771.649	135.062
771.777	133.072
771.905	134.660
772.033	137.031
772.162	135.196
772.290	133.320
772.418	136.196
772.546	134.330
772.674	136.495
772.802	135.515
772.930	131.670
773.058	132.464
773.187	134.186
773.315	133.206
773.443	131.680
773.571	133.732
773.699	132.227
773.827	132.887
773.955	133.845
774.083	134.144
774.212	131.062
774.340	133.938
774.468	132.247
774.596	131.598
774.724	136.330
774.852	131.320
774.980	133.845
775.108	132.928
775.237	130.897
775.365	130.041
775.493	132.000
775.621	131.134
775.749	131.072
775.877	134.258
776.005	132.454
776.133	131.175
776.262	132.021
776.390	129.227
776.518	131.979
776.646	130.794
776.774	130.371
776.902	130.928
777.030	130.165
777.158	129.835
777.287	129.691
777.415	130.206
777.543	131.072
777.671	130.938
777.799	128.175
777.927	132.856
778.055	130.814
778.183	129.732
778.312	131.753
778.440	129.062
778.568	126.722
778.696	129.835
778.824	129.629
778.952	129.948
779.080	127.392
779.208	128.969
779.337	127.062
779.465	128.031
779.593	129.268
779.721	129.021
779.849	128.969
779.977	128.144
780.105	127.928
780.233	128.103
780.362	125.670
780.490	127.454
780.618	127.701
780.746	128.351
780.874	127.381
781.002	127.722
781.130	128.113
781.258	126.175
781.387	127.608
781.515	126.165
781.643	125.443
781.771	128.680
781.899	128.526
782.027	125.144
782.155	127.258
782.283	124.876
782.412	126.103
782.540	127.371
782.668	126.856
782.796	125.443
782.924	126.546
783.052	123.691
783.180	125.000
783.308	126.412
783.437	125.649
783.565	126.258
783.693	124.299
783.821	128.196
783.949	125.000
784.077	124.887
784.205	124.588
784.333	126.351
784.462	126.897
784.590	126.505
784.718	125.103
784.846	123.474
784.974	125.144
785.102	126.031
785.230	127.732
785.358	125.474
785.487	123.340
785.615	122.392
785.743	123.454
785.871	122.113
785.999	126.330
786.127	121.979
786.255	124.454
786.383	124.010
786.512	125.186
786.640	123.216
786.768	125.010
786.896	125.144
787.024	124.732
787.152	120.546
787.280	123.206
787.408	125.402
787.537	124.866
787.665	124.041
787.793	121.412
787.921	122.701
788.049	123.825
788.177	120.340
788.305	122.175
788.433	122.247
788.562	121.247
788.690	121.763
788.818	120.351
788.946	120.990
789.074	120.134
789.202	122.268
789.330	121.392
789.458	122.103
789.587	119.577
789.715	121.495
789.843	121.887
789.971	121.649
790.099	121.526
790.227	119.402
790.355	120.856
790.483	121.629
790.612	120.278
790.740	121.887
790.868	122.814
790.996	121.649
791.124	121.794
791.252	119.536
791.380	121.144
791.508	118.485
791.637	121.464
791.765	119.402
791.893	119.732
792.021	119.742
792.149	120.062
792.277	119.660
792.405	122.196
792.533	118.691
792.662	120.010
792.790	123.928
792.918	121.278
793.046	119.588
793.174	120.320
793.302	119.247
793.430	118.433
793.558	117.680
793.687	119.247
793.815	119.278
793.943	119.701
794.071	118.577
794.199	117.887
794.327	117.897
794.455	118.175
794.583	118.216
794.712	118.371
794.840	116.711
794.968	117.814
795.096	117.134
795.224	117.784
795.352	117.691
795.480	117.320
795.608	117.649
795.737	118.691
795.865	117.866
795.993	115.649
796.121	118.103
796.249	116.392
796.377	115.969
796.505	115.804
796.633	120.866
796.762	119.990
796.890	118.155
797.018	116.268
797.146	117.588
797.274	115.144
797.402	115.938
797.530	115.268
797.658	115.237
797.787	116.433
797.915	118.093
798.043	117.515
798.171	116.351
798.299	114.464
798.427	116.402
798.555	114.619
798.683	114.196
798.812	115.021
798.940	115.412
799.068	117.196
799.196	116.464
799.324	113.887
799.452	114.340
799.580	115.381
799.708	115.402
799.837	116.000
799.965	114.186
800.093	115.649
800.221	116.278
800.349	115.753
800.477	114.041
800.605	114.289
800.733	113.608
800.862	115.062
800.990	115.402
801.118	113.598
801.246	113.258
801.374	113.134
801.502	115.619
801.630	117.082
801.758	112.515
801.887	111.773
802.015	110.825
802.143	113.381
802.271	115.577
802.399	114.021
802.527	113.454
802.655	113.505
802.783	114.680
802.912	111.969
803.040	114.309
803.168	113.701
803.296	113.258
803.424	112.938
803.552	113.237
803.680	112.340
803.808	112.423
803.937	113.320
804.065	112.464
804.193	111.124
804.321	111.701
804.449	112.351
804.577	109.691
804.705	112.052
804.833	111.392
804.962	110.979
805.090	111.309
805.218	112.969
805.346	111.732
805.474	112.608
805.602	113.814
805.730	112.711
805.858	112.649
805.987	111.454
806.115	112.361
806.243	112.330
806.371	111.320
806.499	113.072
806.627	111.485
806.755	112.278
806.883	111.082
807.012	112.196
807.140	111.546
807.268	111.536
807.396	112.959
807.524	111.794
807.652	111.041
807.780	111.423
807.908	110.072
808.037	111.814
808.165	113.165
808.293	111.299
808.421	112.598
808.549	110.619
808.677	110.155
808.805	110.701
808.933	111.237
809.062	110.402
809.190	112.711
809.318	112.866
809.446	111.237
809.574	110.433
809.702	109.959
809.830	110.825
809.958	110.196
810.087	110.021
810.215	110.979
810.343	112.124
810.471	112.526
810.599	111.134
810.727	111.010
810.855	109.918
810.983	111.010
811.112	111.515
811.240	108.536
811.368	109.691
811.496	110.258
811.624	110.443
811.752	109.845
811.880	109.412
812.008	109.887
812.137	110.134
812.265	109.814
812.393	108.938
812.521	109.433
812.649	109.237
812.777	108.691
812.905	110.402
813.033	108.619
813.162	109.856
813.290	109.526
813.418	109.216
813.546	110.309
813.674	110.144
813.802	108.619
813.930	109.237
814.058	108.732
814.187	108.866
814.315	109.361
814.443	109.464
814.571	108.175
814.699	111.113
814.827	110.742
814.955	108.835
815.083	108.381
815.212	108.216
815.340	108.794
815.468	108.608
815.596	107.907
815.724	109.309
815.852	108.732
815.980	108.165
816.108	109.082
816.237	109.351
816.365	108.175
816.493	108.557
816.621	108.784
816.749	110.753
816.877	108.794
817.005	108.845
817.133	108.289
817.262	108.876
817.390	110.866
817.518	110.361
817.646	107.041
817.774	107.608
817.902	109.887
818.030	108.124
818.158	109.134
818.287	108.464
818.415	108.794
818.543	107.052
818.671	108.423
818.799	108.495
818.927	108.000
819.055	108.371
819.183	109.289
819.312	108.979
819.440	107.763
819.568	107.423
819.696	108.474
819.824	107.639
819.952	107.423
820.080	106.155
820.208	108.155
820.337	110.381
820.465	108.010
820.593	106.732
820.721	107.412
820.849	107.577
820.977	107.557
821.105	108.062
821.233	107.608
821.362	105.907
821.490	106.320
821.618	106.773
821.746	106.144
821.874	106.567
822.002	107.814
822.130	108.165
822.258	106.485
822.387	106.567
822.515	106.619
822.643	106.402
822.771	105.330
822.899	105.680
823.027	106.258
823.155	105.495
823.283	107.165
823.412	107.577
823.540	106.412
823.668	106.835
823.796	106.237
823.924	106.196
824.052	105.866
824.180	104.918
824.308	105.691
824.437	106.237
824.565	107.113
824.693	107.794
824.821	106.845
824.949	106.495
825.077	105.887
825.205	106.031
825.333	106.093
825.462	106.082
825.590	104.825
825.718	104.629
825.846	105.897
825.974	105.619
826.102	104.876
826.230	103.856
826.358	105.268
826.487	106.144
826.615	104.412
826.743	104.907
826.871	106.216
826.999	106.536
827.127	106.258
827.255	105.206
827.383	105.629
827.512	105.010
827.640	106.206
827.768	104.773
827.896	105.835
828.024	105.258
828.152	104.959
828.280	106.381
828.408	104.845
828.537	104.866
828.665	104.773
828.793	105.495
828.921	106.866
829.049	105.258
829.177	105.072
829.305	105.887
829.433	104.711
829.562	104.835
829.690	105.608
829.818	104.423
829.946	104.804
830.074	105.711
830.202	106.722
830.330	104.309
830.458	105.814
830.587	105.165
830.715	105.402
830.843	104.423
830.971	104.990
831.099	104.474
831.227	104.454
831.355	104.763
831.483	106.412
831.612	104.814
831.740	105.979
831.868	104.577
831.996	106.021
832.124	106.526
832.252	103.711
832.380	103.794
832.508	105.485
832.637	104.320
832.765	105.309
832.893	105.165
833.021	105.814
833.149	105.113
833.277	105.979
833.405	106.340
833.533	103.814
833.662	103.897
833.790	105.124
833.918	105.485
834.046	106.021
834.174	105.082
834.302	105.402
834.430	103.454
834.558	104.598
834.687	104.866
834.815	105.000
834.943	103.567
835.071	104.567
835.199	104.845
835.327	104.124
835.455	102.897
835.583	105.041
835.712	104.856
835.840	104.794
835.968	103.577
836.096	104.619
836.224	104.588
836.352	105.928
836.480	104.165
836.608	103.773
836.737	105.000
836.865	103.361
836.993	103.649
837.121	104.928
837.249	103.000
837.377	104.505
837.505	103.907
837.633	103.711
837.762	103.113
837.890	103.258
838.018	101.763
838.146	103.320
838.274	103.144
838.402	104.619
838.530	103.526
838.658	103.320
838.787	102.876
838.915	103.959
839.043	104.845
839.171	104.062
839.299	104.629
839.427	102.948
839.555	105.227
839.683	105.134
839.812	104.216
839.940	104.866
840.068	104.010
840.196	103.423
840.324	103.732
840.452	104.680
840.580	103.485
840.708	103.639
840.837	103.165
840.965	104.082
841.093	104.660
841.221	104.340
841.349	106.381
841.477	104.784
841.605	101.649
841.733	102.330
841.862	104.907
841.990	104.371
842.118	104.753
842.246	102.948
842.374	104.072
842.502	103.546
842.630	103.216
842.758	103.021
842.887	103.433
843.015	103.392
843.143	102.237
843.271	103.309
843.399	104.021
843.527	103.000
843.655	103.598
843.783	103.546
843.912	104.629
844.040	104.629
844.168	104.309
844.296	102.928
844.424	104.495
844.552	104.000
844.680	104.351
844.808	104.113
844.937	104.784
845.065	102.021
845.193	103.464
845.321	103.660
845.449	104.474
845.577	103.134
845.705	103.361
845.833	104.021
845.962	103.897
846.090	102.278
846.218	102.722
846.346	104.082
846.474	102.134
846.602	102.722
846.730	102.938
846.858	102.330
846.987	102.443
847.115	103.423
847.243	104.041
847.371	103.000
847.499	102.794
847.627	102.804
847.755	102.175
847.883	101.495
848.012	103.660
848.140	102.742
848.268	101.918
848.396	102.742
848.524	103.557
848.652	103.804
848.780	102.526
848.908	103.505
849.037	102.577
849.165	103.289
849.293	102.907
849.421	102.268
849.549	102.309
849.677	102.021
849.805	102.041
849.933	102.464
850.062	103.423
850.190	102.505
850.318	101.825
850.446	103.742
850.574	101.412
850.702	102.052
850.830	101.588
850.958	101.495
851.087	103.948
851.215	102.742
851.343	102.577
851.471	102.196
851.599	103.062
851.727	102.567
851.855	102.876
851.983	102.495
852.112	103.588
852.240	102.289
852.368	103.103
852.496	101.876
852.624	101.371
852.752	101.010
852.880	102.134
853.008	101.237
853.137	102.866
853.265	103.041
853.393	103.814
853.521	102.835
853.649	103.021
853.777	102.206
853.905	102.093
854.033	100.649
854.162	102.907
854.290	101.155
854.418	101.309
854.546	100.711
854.674	101.691
854.802	100.361
854.930	101.021
855.058	102.371
855.187	102.814
855.315	101.247
855.443	102.918
855.571	102.505
855.699	102.052
855.827	102.402
855.955	101.897
856.083	101.845
856.212	103.299
856.340	103.155
856.468	101.732
856.596	102.237
856.724	102.629
856.852	101.134
856.980	100.371
857.108	101.381
857.237	102.959
857.365	102.526
857.493	103.021
857.621	100.639
857.749	101.124
857.877	100.474
858.005	101.948
858.133	101.216
858.262	102.206
858.390	101.670
858.518	101.814
858.646	102.351
858.774	102.732
858.902	100.825
859.030	102.041
859.158	100.670
859.287	102.526
859.415	100.351
859.543	101.144
859.671	101.825
859.799	101.485
859.927	102.134
860.055	102.289
860.183	101.742
860.312	101.351
860.440	101.268
860.568	101.619
860.696	101.309
860.824	101.402
860.952	102.082
861.080	101.546
861.208	102.299
861.337	101.443
861.465	100.505
861.593	101.722
861.721	101.062
861.849	100.000
861.977	101.134
862.105	101.670
862.233	101.773
862.362	102.814
862.490	100.897
862.618	100.639
862.746	101.041
862.874	101.670
863.002	101.680
863.130	101.216
863.258	102.969
863.387	101.856
863.515	101.165
863.643	100.732
863.771	101.134
863.899	100.732
864.027	102.505
864.155	101.722
864.283	101.093
864.412	102.588
864.540	101.825
864.668	100.773
864.796	101.196
864.924	101.423
865.052	100.680
865.180	101.443
865.308	100.361
865.437	101.010
865.565	100.608
865.693	101.423
865.821	101.330
865.949	101.773
866.077	102.186
866.205	100.381
866.333	101.485
866.462	100.680
866.590	100.814
866.718	102.588
866.846	102.113
866.974	101.701
867.102	101.124
867.230	100.557
867.358	100.619
867.487	101.103
867.615	100.505
867.743	101.629
867.871	102.010
867.999	101.258
868.127	101.062
868.255	102.753
868.383	102.670
868.512	101.526
868.640	100.763
868.768	101.959
868.896	99.856
869.024	101.227
869.152	101.165
869.280	102.320
869.408	102.732
869.537	101.320
869.665	101.722
869.793	100.979
869.921	101.784
870.049	101.608
870.177	101.742
870.305	102.289
870.433	101.629
870.562	102.206
870.690	101.072
870.818	100.649
870.946	100.948
871.074	100.546
871.202	100.031
871.330	100.804
871.458	100.598
871.587	101.753
871.715	100.000
871.843	101.247
871.971	102.412
872.099	100.340
872.227	100.474
872.355	100.196
872.483	100.557
872.612	101.969
872.740	100.103
872.868	101.536
872.996	99.412
873.124	99.979
873.252	101.670
873.380	101.062
873.508	101.392
873.637	101.412
873.765	100.268
873.893	101.670
874.021	102.000
874.149	101.464
874.277	102.062
874.405	102.691
874.533	101.711
874.662	99.948
874.790	98.763
874.918	101.021
875.046	98.938
875.174	100.351
875.302	101.753
875.430	100.485
875.558	100.134
875.687	100.485
875.815	101.216
875.943	100.887
876.071	102.485
876.199	102.845
876.327	101.093
876.455	101.289
876.583	102.495
876.712	101.237
876.840	99.835
876.968	100.763
877.096	102.000
877.224	101.691
877.352	100.103
877.480	100.113
877.608	100.722
877.737	100.351
877.865	99.320
877.993	100.732
878.121	100.093
878.249	101.546
878.377	101.175
878.505	100.381
878.633	101.784
878.762	101.320
878.890	100.814
879.018	100.186
879.146	100.897
879.274	101.227
879.402	102.526
879.530	100.258
879.658	101.680
879.787	99.649
879.915	99.856
880.043	99.753
880.171	99.608
880.299	98.856
880.427	99.670
880.555	101.103
880.683	100.990
880.812	101.258
880.940	99.619
881.068	101.670
881.196	101.907
881.324	99.928
881.452	100.144
881.580	100.258
881.708	100.876
881.837	102.010
881.965	99.639
882.093	100.495
882.221	101.619
882.349	99.959
882.477	101.485
882.605	100.268
882.733	100.753
882.862	100.649
882.990	99.371
883.118	101.948
883.246	100.649
883.374	101.258
883.502	99.701
883.630	101.000
883.758	101.268
883.887	100.990
884.015	100.392
884.143	101.227
884.271	100.464
884.399	100.412
884.527	100.412
884.655	101.320
884.783	102.907
884.912	101.619
885.040	100.206
885.168	99.021
885.296	100.206
885.424	100.546
885.552	101.144
885.680	99.691
885.808	101.144
885.937	101.608
886.065	100.144
886.193	100.423
886.321	101.165
886.449	101.485
886.577	100.814
886.705	99.938
886.833	99.794
886.962	100.660
887.090	100.237
887.218	100.495
887.346	99.814
887.474	101.907
887.602	100.835
887.730	99.289
887.858	99.907
887.987	101.103
888.115	100.649
888.243	100.969
888.371	101.835
888.499	102.031
888.627	99.093
888.755	99.897
888.883	99.918
889.012	100.835
889.140	99.454
889.268	100.670
889.396	99.567
889.524	100.021
889.652	100.134
889.780	100.216
889.908	99.918
890.037	99.804
890.165	100.103
890.293	100.990
890.421	100.701
890.549	101.258
890.677	100.010
890.805	100.186
890.933	101.216
891.062	100.113
891.190	100.990
891.318	100.619
891.446	101.485
891.574	100.701
891.702	99.588
891.830	100.031
891.958	100.361
892.087	100.392
892.215	100.722
892.343	102.113
892.471	101.278
892.599	100.536
892.727	101.237
892.855	100.887
892.983	100.515
893.112	99.546
893.240	100.351
893.368	100.979
893.496	102.041
893.624	100.443
893.752	100.938
893.880	99.536
894.008	100.216
894.137	99.763
894.265	100.670
894.393	102.031
894.521	101.392
894.649	100.010
894.777	100.588
894.905	99.567
895.033	102.041
895.162	101.485
895.290	100.990
895.418	101.186
895.546	101.711
895.674	100.237
895.802	99.515
895.930	101.598
896.058	100.515
896.187	100.175
896.315	101.928
896.443	100.588
896.571	100.258
896.699	101.515
896.827	100.340
896.955	100.186
897.083	101.093
897.212	101.495
897.340	100.928
897.468	99.515
897.596	99.464
897.724	100.433
897.852	100.175
897.980	102.309
898.108	99.515
898.237	99.804
898.365	100.392
898.493	100.155
898.621	100.412
898.749	99.361
898.877	99.990
899.005	100.474
899.133	100.588
899.262	100.155
899.390	99.443
899.518	100.186
899.646	100.330
899.774	101.216
899.902	99.711
900.030	101.299
900.158	100.330
900.287	100.619
900.415	100.928
900.543	101.072
900.671	102.485
900.799	100.474
900.927	100.897
901.055	100.402
901.183	100.639
901.312	100.567
901.440	101.021
901.568	102.175
901.696	100.918
901.824	100.268
901.952	101.371
902.080	99.608
902.208	100.175
902.337	100.258
902.465	99.928
902.593	102.052
902.721	101.443
902.849	100.206
902.977	100.351
903.105	101.021
903.233	99.897
903.362	101.505
903.490	99.165
903.618	100.186
903.746	100.247
903.874	100.948
904.002	101.113
904.130	100.794
904.258	100.464
904.387	100.670
904.515	100.619
904.643	100.608
904.771	101.351
904.899	100.825
905.027	99.763
905.155	99.742
905.283	100.309
905.412	100.165
905.540	100.835
905.668	99.732
905.796	99.165
905.924	101.082
906.052	101.237
906.180	101.381
906.308	99.763
906.437	98.660
906.565	101.082
906.693	100.814
906.821	99.392
906.949	101.093
907.077	99.711
907.205	100.969
907.333	99.567
907.462	101.278
907.590	100.474
907.718	100.608
907.846	100.536
907.974	100.928
908.102	101.381
908.230	99.041
908.358	99.619
908.487	99.165
908.615	99.887
908.743	100.196
908.871	100.969
908.999	101.113
909.127	99.763
909.255	99.371
909.383	99.515
909.512	100.711
909.640	101.330
909.768	100.309
909.896	100.680
910.024	100.784
910.152	101.804
910.280	100.227
910.408	100.856
910.537	102.753
910.665	100.546
910.793	102.670
910.921	100.825
911.049	100.247
911.177	99.856
911.305	100.299
911.433	100.918
911.562	101.856
911.690	102.103
911.818	100.433
911.946	101.423
912.074	101.845
912.202	100.124
912.330	100.113
912.458	101.969
912.587	99.495
912.715	100.247
912.843	99.588
912.971	101.351
913.099	100.866
913.227	102.773
913.355	101.536
913.483	100.804
913.612	101.392
913.740	100.320
913.868	101.268
