sample16u_at_750.00nm_cut_at_1060.50Y_01.dat
19.06.2023
11:23:33
cut middle at Y: 1060.50
top cursor: 1109 down cursor: 1012 mean of: 97 lines , 2560 datapoints
wavelength(nm)	intensity[arb. units]
585.996	2049.412
586.124	1964.856
586.252	1954.639
586.380	1962.515
586.508	1967.639
586.637	1971.784
586.765	1958.680
586.893	1974.216
587.021	1987.814
587.149	1981.371
587.277	1982.505
587.405	1988.464
587.533	1978.711
587.662	1997.577
587.790	1997.165
587.918	1988.206
588.046	1999.804
588.174	1998.227
588.302	1998.515
588.430	1991.608
588.558	2009.227
588.687	1997.258
588.815	2013.278
588.943	2014.711
589.071	1998.907
589.199	2006.794
589.327	2022.588
589.455	2005.722
589.583	2020.247
589.712	2020.402
589.840	2027.598
589.968	2011.814
590.096	2034.454
590.224	2030.041
590.352	2032.320
590.480	2041.227
590.608	2029.629
590.737	2012.732
590.865	2044.804
590.993	2032.010
591.121	2046.320
591.249	2033.938
591.377	2020.206
591.505	2031.680
591.633	2035.392
591.762	2029.639
591.890	2059.082
592.018	2030.835
592.146	2050.505
592.274	2072.330
592.402	2053.701
592.530	2050.155
592.658	2056.990
592.787	2065.299
592.915	2050.515
593.043	2072.505
593.171	2055.412
593.299	2085.144
593.427	2066.082
593.555	2065.515
593.683	2074.753
593.812	2074.732
593.940	2090.093
594.068	2087.660
594.196	2099.041
594.324	2083.866
594.452	2120.454
594.580	2117.381
594.708	2109.237
594.837	2114.938
594.965	2133.711
595.093	2126.979
595.221	2125.515
595.349	2134.062
595.477	2141.567
595.605	2144.000
595.733	2176.876
595.862	2163.876
595.990	2159.474
596.118	2161.784
596.246	2171.196
596.374	2162.155
596.502	2181.711
596.630	2187.680
596.758	2179.887
596.887	2188.155
597.015	2202.845
597.143	2172.052
597.271	2185.340
597.399	2182.093
597.527	2201.515
597.655	2210.258
597.783	2188.113
597.912	2193.474
598.040	2216.423
598.168	2187.443
598.296	2198.144
598.424	2193.897
598.552	2195.474
598.680	2182.856
598.808	2203.773
598.937	2216.186
599.065	2196.165
599.193	2191.969
599.321	2179.062
599.449	2194.206
599.577	2195.608
599.705	2191.062
599.833	2197.711
599.962	2183.979
600.090	2188.856
600.218	2185.381
600.346	2210.309
600.474	2192.598
600.602	2198.588
600.730	2198.918
600.858	2205.948
600.987	2202.990
601.115	2200.082
601.243	2200.464
601.371	2210.227
601.499	2209.784
601.627	2213.598
601.755	2224.134
601.883	2227.330
602.012	2250.814
602.140	2226.433
602.268	2241.701
602.396	2249.278
602.524	2227.082
602.652	2258.670
602.780	2280.938
602.908	2279.330
603.037	2286.639
603.165	2296.866
603.293	2318.732
603.421	2311.876
603.549	2297.619
603.677	2316.742
603.805	2307.732
603.933	2330.670
604.062	2317.639
604.190	2367.082
604.318	2348.763
604.446	2358.093
604.574	2355.227
604.702	2372.608
604.830	2364.990
604.958	2393.546
605.087	2403.454
605.215	2393.608
605.343	2402.268
605.471	2414.856
605.599	2397.031
605.727	2413.701
605.855	2413.619
605.983	2423.938
606.112	2422.330
606.240	2444.113
606.368	2445.371
606.496	2467.247
606.624	2427.330
606.752	2455.711
606.880	2489.742
607.008	2527.134
607.137	2517.732
607.265	2450.835
607.393	2471.031
607.521	2487.825
607.649	2466.979
607.777	2453.392
607.905	2474.082
608.033	2477.753
608.162	2460.155
608.290	2474.443
608.418	2480.165
608.546	2468.216
608.674	2486.309
608.802	2454.247
608.930	2472.711
609.058	2458.577
609.187	2470.134
609.315	2471.629
609.443	2462.289
609.571	2475.268
609.699	2449.124
609.827	2448.969
609.955	2495.062
610.083	2445.464
610.212	2459.062
610.340	2461.814
610.468	2469.010
610.596	2483.237
610.724	2480.701
610.852	2464.082
610.980	2465.320
611.108	2481.320
611.237	2463.155
611.365	2466.588
611.493	2466.649
611.621	2474.351
611.749	2475.732
611.877	2493.485
612.005	2490.577
612.133	2495.928
612.262	2491.577
612.390	2510.722
612.518	2507.825
612.646	2541.773
612.774	2507.691
612.902	2506.660
613.030	2513.907
613.158	2554.021
613.287	2541.856
613.415	2529.134
613.543	2538.732
613.671	2548.309
613.799	2532.289
613.927	2579.619
614.055	2547.876
614.183	2638.959
614.312	2549.660
614.440	2621.103
614.568	2568.237
614.696	2560.753
614.824	2670.701
614.952	2608.124
615.080	2559.948
615.208	2618.660
615.337	2601.175
615.465	2604.124
615.593	2622.361
615.721	2644.588
615.849	2649.093
615.977	2638.938
616.105	2672.216
616.233	2638.474
616.362	2672.753
616.490	2620.247
616.618	2602.258
616.746	2682.619
616.874	2703.010
617.002	2660.660
617.130	2707.825
617.258	2763.526
617.387	2666.856
617.515	2631.175
617.643	2651.887
617.771	2692.948
617.899	2683.515
618.027	2636.216
618.155	2745.732
618.283	2657.309
618.412	2685.196
618.540	2729.062
618.668	2708.588
618.796	2675.485
618.924	2774.495
619.052	2692.928
619.180	2652.794
619.308	2696.928
619.437	2712.361
619.565	2706.443
619.693	2675.175
619.821	2713.526
619.949	2702.649
620.077	2724.320
620.205	2720.670
620.333	2722.649
620.462	2723.144
620.590	2769.856
620.718	2707.165
620.846	2782.072
620.974	2751.598
621.102	2740.227
621.230	2709.268
621.358	2813.010
621.487	2693.814
621.615	2754.258
621.743	2713.598
621.871	2731.474
621.999	2780.186
622.127	2721.196
622.255	2725.948
622.383	2727.216
622.512	2732.289
622.640	2848.866
622.768	2712.979
622.896	2734.072
623.024	2730.876
623.152	2812.062
623.280	2760.320
623.408	2693.536
623.537	2733.773
623.665	2717.062
623.793	2751.691
623.921	2742.268
624.049	2698.495
624.177	2725.299
624.305	2753.340
624.433	2750.577
624.562	2717.021
624.690	2758.361
624.818	2750.113
624.946	2867.175
625.074	2756.732
625.202	2722.361
625.330	2705.021
625.458	2770.732
625.587	2717.907
625.715	2780.794
625.843	2811.629
625.971	2727.732
626.099	2717.124
626.227	2724.928
626.355	2728.814
626.483	2804.258
626.612	2719.351
626.740	2716.794
626.868	2759.948
626.996	2686.320
627.124	2724.072
627.252	2700.412
627.380	2732.041
627.508	2723.052
627.637	2739.206
627.765	2758.742
627.893	2727.433
628.021	2718.845
628.149	2747.124
628.277	2759.639
628.405	2796.021
628.533	2722.485
628.662	2766.928
628.790	2752.701
628.918	2757.691
629.046	2769.918
629.174	2753.588
629.302	2829.722
629.430	2727.515
629.558	2765.206
629.687	2762.680
629.815	2765.113
629.943	2814.814
630.071	2794.278
630.199	2787.515
630.327	2805.907
630.455	2766.526
630.583	2832.897
630.712	2809.392
630.840	2794.165
630.968	2828.784
631.096	2788.381
631.224	2780.031
631.352	2787.289
631.480	2817.392
631.608	2808.206
631.737	2883.691
631.865	2980.588
631.993	2810.711
632.121	2923.866
632.249	2892.485
632.377	2846.381
632.505	2860.206
632.633	2788.959
632.762	2847.608
632.890	2902.309
633.018	2793.041
633.146	2802.196
633.274	2842.392
633.402	2826.639
633.530	2774.845
633.658	2939.742
633.787	2769.639
633.915	2867.979
634.043	2817.258
634.171	2796.062
634.299	2852.845
634.427	2887.577
634.555	2854.526
634.683	2826.546
634.812	2808.371
634.940	2813.660
635.068	2764.371
635.196	2808.763
635.324	2793.856
635.452	2853.124
635.580	2769.814
635.708	2765.320
635.837	2813.216
635.965	2803.670
636.093	2779.505
636.221	2762.660
636.349	2821.753
636.477	2717.320
636.605	2878.155
636.733	2722.361
636.862	2720.144
636.990	2759.649
637.118	2815.000
637.246	2761.845
637.374	2740.062
637.502	2729.278
637.630	2683.753
637.758	2723.340
637.887	2682.608
638.015	2717.825
638.143	2702.670
638.271	2706.495
638.399	2713.031
638.527	2687.454
638.655	2676.175
638.783	2801.278
638.912	2716.381
639.040	2685.928
639.168	2706.845
639.296	2673.742
639.424	2790.680
639.552	2652.557
639.680	2667.165
639.808	2683.093
639.937	2643.041
640.065	2658.361
640.193	2725.443
640.321	2645.412
640.449	2706.866
640.577	2726.144
640.705	2652.381
640.833	2740.196
640.962	2661.381
641.090	2645.062
641.218	2622.918
641.346	2660.938
641.474	2676.464
641.602	2648.876
641.730	2636.959
641.858	2638.021
641.987	2675.196
642.115	2632.804
642.243	2678.237
642.371	2660.113
642.499	2658.175
642.627	2659.825
642.755	2701.825
642.883	2699.887
643.012	2660.763
643.140	2631.392
643.268	2664.268
643.396	2662.402
643.524	2754.711
643.652	2653.753
643.780	2660.928
643.908	2654.113
644.037	2742.608
644.165	2652.825
644.293	2659.536
644.421	2622.113
644.549	2706.845
644.677	2666.979
644.805	2689.979
644.933	2635.454
645.062	2650.742
645.190	2678.567
645.318	2714.711
645.446	2673.814
645.574	2665.505
645.702	2658.536
645.830	2788.515
645.958	2657.959
646.087	2809.691
646.215	2660.433
646.343	2803.144
646.471	2704.361
646.599	2698.082
646.727	2647.701
646.855	2663.423
646.983	2688.062
647.112	2640.876
647.240	2782.443
647.368	2639.309
647.496	2686.103
647.624	2607.567
647.752	2628.845
647.880	2644.330
648.008	2629.938
648.137	2620.433
648.265	2606.732
648.393	2620.742
648.521	2624.227
648.649	2627.825
648.777	2613.990
648.905	2586.938
649.033	2606.598
649.162	2614.340
649.290	2577.918
649.418	2602.371
649.546	2592.639
649.674	2622.196
649.802	2598.361
649.930	2649.062
650.058	2539.206
650.187	2581.763
650.315	2548.825
650.443	2592.443
650.571	2558.289
650.699	2550.144
650.827	2538.680
650.955	2553.021
651.083	2535.629
651.212	2573.454
651.340	2574.835
651.468	2568.402
651.596	2550.227
651.724	2521.392
651.852	2526.361
651.980	2515.969
652.108	2562.412
652.237	2525.124
652.365	2529.052
652.493	2518.093
652.621	2498.629
652.749	2514.876
652.877	2484.722
653.005	2501.619
653.133	2499.165
653.262	2497.763
653.390	2483.711
653.518	2499.278
653.646	2480.082
653.774	2509.485
653.902	2502.567
654.030	2466.629
654.158	2456.660
654.287	2475.330
654.415	2456.876
654.543	2458.804
654.671	2462.165
654.799	2454.577
654.927	2441.464
655.055	2435.784
655.183	2437.062
655.312	2422.309
655.440	2418.588
655.568	2417.990
655.696	2426.722
655.824	2435.588
655.952	2418.196
656.080	2407.649
656.208	2432.990
656.337	2396.093
656.465	2421.113
656.593	2411.196
656.721	2398.330
656.849	2397.845
656.977	2392.577
657.105	2400.907
657.233	2381.959
657.362	2383.165
657.490	2364.113
657.618	2376.598
657.746	2381.196
657.874	2349.361
658.002	2354.495
658.130	2348.948
658.258	2347.753
658.387	2348.526
658.515	2325.598
658.643	2319.835
658.771	2335.021
658.899	2318.794
659.027	2317.649
659.155	2325.010
659.283	2313.433
659.412	2306.175
659.540	2318.619
659.668	2303.485
659.796	2276.247
659.924	2302.464
660.052	2295.959
660.180	2274.515
660.308	2284.722
660.437	2270.959
660.565	2261.928
660.693	2269.680
660.821	2262.629
660.949	2278.526
661.077	2253.928
661.205	2254.216
661.333	2243.144
661.462	2260.361
661.590	2250.928
661.718	2245.351
661.846	2216.907
661.974	2237.330
662.102	2225.753
662.230	2228.268
662.358	2216.526
662.487	2216.701
662.615	2199.557
662.743	2223.515
662.871	2211.237
662.999	2195.320
663.127	2208.711
663.255	2206.402
663.383	2215.866
663.512	2193.753
663.640	2195.763
663.768	2192.763
663.896	2209.052
664.024	2175.773
664.152	2189.340
664.280	2183.371
664.408	2169.742
664.537	2182.835
664.665	2188.897
664.793	2174.969
664.921	2151.062
665.049	2160.969
665.177	2169.742
665.305	2164.918
665.433	2171.072
665.562	2166.186
665.690	2154.608
665.818	2146.371
665.946	2152.948
666.074	2158.763
666.202	2143.876
666.330	2144.598
666.458	2145.443
666.587	2140.103
666.715	2136.577
666.843	2141.093
666.971	2131.258
667.099	2125.536
667.227	2134.526
667.355	2124.773
667.483	2117.268
667.612	2132.381
667.740	2109.247
667.868	2118.876
667.996	2100.320
668.124	2106.928
668.252	2113.443
668.380	2094.866
668.508	2100.959
668.637	2088.753
668.765	2102.412
668.893	2102.134
669.021	2093.845
669.149	2069.299
669.277	2062.825
669.405	2069.196
669.533	2079.412
669.662	2082.454
669.790	2059.948
669.918	2066.268
670.046	2059.320
670.174	2055.856
670.302	2060.216
670.430	2035.309
670.558	2039.155
670.687	2036.175
670.815	2032.309
670.943	2025.371
671.071	2000.526
671.199	2016.361
671.327	2004.412
671.455	1999.515
671.583	2004.784
671.712	1983.175
671.840	1981.722
671.968	1977.990
672.096	1972.443
672.224	1975.948
672.352	1970.041
672.480	1962.320
672.608	1968.887
672.737	1955.969
672.865	1947.464
672.993	1947.639
673.121	1929.278
673.249	1932.206
673.377	1926.784
673.505	1914.433
673.633	1906.928
673.762	1898.753
673.890	1907.454
674.018	1904.464
674.146	1878.433
674.274	1892.825
674.402	1880.794
674.530	1877.804
674.658	1881.629
674.787	1855.340
674.915	1858.402
675.043	1853.845
675.171	1855.629
675.299	1845.928
675.427	1828.979
675.555	1838.351
675.683	1824.959
675.812	1814.227
675.940	1799.412
676.068	1820.526
676.196	1799.897
676.324	1794.835
676.452	1792.412
676.580	1782.186
676.708	1779.082
676.837	1799.165
676.965	1764.113
677.093	1764.794
677.221	1767.959
677.349	1753.691
677.477	1754.495
677.605	1727.588
677.733	1744.959
677.862	1743.619
677.990	1725.515
678.118	1732.278
678.246	1721.814
678.374	1703.907
678.502	1712.691
678.630	1707.402
678.758	1704.206
678.887	1695.546
679.015	1698.381
679.143	1694.577
679.271	1680.773
679.399	1678.237
679.527	1677.464
679.655	1672.062
679.783	1674.938
679.912	1653.021
680.040	1652.443
680.168	1658.216
680.296	1643.258
680.424	1640.320
680.552	1637.773
680.680	1638.928
680.808	1640.701
680.937	1629.928
681.065	1634.526
681.193	1617.567
681.321	1618.082
681.449	1620.165
681.577	1605.412
681.705	1597.165
681.833	1597.557
681.962	1588.732
682.090	1604.196
682.218	1601.113
682.346	1592.670
682.474	1588.289
682.602	1595.165
682.730	1572.515
682.858	1577.206
682.987	1574.845
683.115	1558.113
683.243	1561.309
683.371	1567.433
683.499	1544.928
683.627	1567.361
683.755	1550.330
683.883	1551.887
684.012	1546.103
684.140	1533.412
684.268	1542.330
684.396	1537.113
684.524	1538.021
684.652	1542.237
684.780	1537.340
684.908	1528.278
685.037	1529.340
685.165	1517.412
685.293	1511.567
685.421	1512.031
685.549	1520.206
685.677	1509.577
685.805	1503.340
685.933	1518.103
686.062	1495.567
686.190	1505.103
686.318	1508.175
686.446	1497.804
686.574	1496.557
686.702	1505.495
686.830	1495.619
686.958	1495.021
687.087	1497.021
687.215	1477.619
687.343	1475.598
687.471	1484.546
687.599	1466.124
687.727	1468.660
687.855	1468.577
687.983	1466.876
688.112	1462.608
688.240	1457.814
688.368	1466.268
688.496	1455.639
688.624	1455.351
688.752	1442.155
688.880	1435.330
689.008	1434.773
689.137	1439.608
689.265	1444.196
689.393	1422.351
689.521	1432.784
689.649	1423.701
689.777	1418.732
689.905	1414.433
690.033	1414.309
690.162	1400.619
690.290	1406.165
690.418	1395.216
690.546	1391.526
690.674	1395.021
690.802	1390.835
690.930	1384.320
691.058	1366.299
691.187	1371.773
691.315	1365.546
691.443	1355.948
691.571	1352.763
691.699	1353.021
691.827	1352.629
691.955	1343.546
692.083	1336.299
692.212	1337.082
692.340	1332.711
692.468	1332.443
692.596	1317.670
692.724	1320.639
692.852	1316.619
692.980	1321.082
693.108	1308.897
693.237	1312.722
693.365	1312.515
693.493	1297.454
693.621	1283.918
693.749	1295.124
693.877	1273.680
694.005	1279.247
694.133	1279.258
694.262	1274.113
694.390	1260.165
694.518	1256.670
694.646	1250.876
694.774	1246.887
694.902	1252.546
695.030	1255.897
695.158	1237.897
695.287	1247.505
695.415	1232.866
695.543	1239.557
695.671	1224.186
695.799	1217.680
695.927	1218.814
696.055	1215.247
696.183	1225.897
696.312	1215.351
696.440	1204.680
696.568	1203.907
696.696	1194.010
696.824	1192.155
696.952	1192.876
697.080	1185.206
697.208	1177.186
697.337	1181.742
697.465	1174.753
697.593	1171.897
697.721	1165.536
697.849	1166.124
697.977	1171.299
698.105	1167.175
698.233	1163.165
698.362	1152.629
698.490	1141.515
698.618	1152.134
698.746	1137.918
698.874	1139.320
699.002	1142.186
699.130	1133.814
699.258	1133.062
699.387	1125.000
699.515	1118.515
699.643	1133.969
699.771	1114.093
699.899	1112.649
700.027	1112.876
700.155	1105.175
700.283	1096.825
700.412	1097.309
700.540	1098.268
700.668	1094.567
700.796	1086.309
700.924	1079.825
701.052	1070.835
701.180	1073.175
701.308	1070.577
701.437	1069.021
701.565	1054.144
701.693	1056.402
701.821	1048.680
701.949	1041.701
702.077	1051.691
702.205	1046.536
702.333	1042.289
702.462	1038.062
702.590	1029.897
702.718	1026.732
702.846	1022.526
702.974	1021.010
703.102	1013.340
703.230	1010.392
703.358	986.608
703.487	999.381
703.615	990.701
703.743	982.206
703.871	985.010
703.999	976.526
704.127	984.887
704.255	975.835
704.383	970.144
704.512	960.866
704.640	962.711
704.768	955.660
704.896	954.433
705.024	941.093
705.152	944.103
705.280	942.464
705.408	942.227
705.537	925.268
705.665	940.216
705.793	929.464
705.921	933.258
706.049	926.804
706.177	911.897
706.305	920.093
706.433	912.299
706.562	904.062
706.690	904.959
706.818	893.505
706.946	898.557
707.074	894.753
707.202	887.464
707.330	880.093
707.458	883.691
707.587	873.361
707.715	879.598
707.843	861.567
707.971	863.938
708.099	866.742
708.227	859.113
708.355	858.742
708.483	850.598
708.612	846.639
708.740	852.979
708.868	844.546
708.996	841.485
709.124	839.773
709.252	833.474
709.380	829.371
709.508	826.206
709.637	826.144
709.765	819.969
709.893	814.227
710.021	815.227
710.149	815.753
710.277	808.268
710.405	808.495
710.533	804.289
710.662	797.093
710.790	799.371
710.918	797.227
711.046	795.845
711.174	787.412
711.302	792.103
711.430	776.907
711.558	787.722
711.687	783.206
711.815	778.371
711.943	777.732
712.071	773.928
712.199	770.113
712.327	767.124
712.455	765.320
712.583	766.474
712.712	767.134
712.840	755.289
712.968	760.794
713.096	753.010
713.224	753.144
713.352	754.320
713.480	746.361
713.608	748.918
713.737	738.443
713.865	742.330
713.993	747.010
714.121	735.216
714.249	739.639
714.377	730.701
714.505	733.907
714.633	724.258
714.762	726.443
714.890	729.753
715.018	724.443
715.146	718.278
715.274	712.701
715.402	717.412
715.530	720.701
715.658	713.856
715.787	709.340
715.915	713.330
716.043	714.186
716.171	707.454
716.299	705.443
716.427	702.103
716.555	706.082
716.683	701.649
716.812	693.392
716.940	690.392
717.068	686.495
717.196	692.474
717.324	682.948
717.452	682.649
717.580	673.567
717.708	677.258
717.837	674.907
717.965	671.052
718.093	672.670
718.221	661.320
718.349	664.268
718.477	666.412
718.605	654.784
718.733	664.876
718.862	653.732
718.990	659.351
719.118	654.691
719.246	652.990
719.374	649.247
719.502	650.454
719.630	646.495
719.758	649.423
719.887	634.938
720.015	640.320
720.143	632.526
720.271	636.505
720.399	635.000
720.527	630.784
720.655	628.918
720.783	624.144
720.912	623.309
721.040	621.928
721.168	619.670
721.296	618.794
721.424	619.134
721.552	615.598
721.680	609.959
721.808	610.608
721.937	609.918
722.065	605.381
722.193	598.680
722.321	601.155
722.449	593.227
722.577	592.918
722.705	587.567
722.833	590.897
722.962	586.433
723.090	584.010
723.218	580.041
723.346	575.928
723.474	578.072
723.602	571.247
723.730	570.897
723.858	576.134
723.987	570.351
724.115	565.186
724.243	566.732
724.371	561.258
724.499	562.454
724.627	556.268
724.755	553.144
724.883	559.082
725.012	547.887
725.140	546.320
725.268	553.010
725.396	538.124
725.524	544.309
725.652	543.268
725.780	537.876
725.908	535.722
726.037	533.845
726.165	530.948
726.293	527.392
726.421	525.289
726.549	529.443
726.677	522.196
726.805	519.588
726.933	518.526
727.062	514.155
727.190	511.309
727.318	515.546
727.446	510.557
727.574	507.608
727.702	508.134
727.830	508.567
727.958	505.289
728.087	499.742
728.215	495.845
728.343	502.546
728.471	500.959
728.599	498.371
728.727	496.938
728.855	489.897
728.983	492.485
729.112	491.536
729.240	487.371
729.368	484.639
729.496	489.361
729.624	480.814
729.752	475.959
729.880	476.515
730.008	477.814
730.137	470.814
730.265	472.175
730.393	476.464
730.521	466.433
730.649	468.567
730.777	464.670
730.905	466.485
731.033	466.010
731.162	467.557
731.290	460.124
731.418	463.918
731.546	456.794
731.674	454.443
731.802	451.072
731.930	455.052
732.058	454.000
732.187	449.485
732.315	457.505
732.443	455.113
732.571	446.433
732.699	448.588
732.827	447.639
732.955	447.588
733.083	445.093
733.212	445.361
733.340	443.856
733.468	444.196
733.596	435.258
733.724	437.062
733.852	433.196
733.980	432.938
734.108	434.701
734.237	434.485
734.365	426.093
734.493	436.309
734.621	430.969
734.749	429.835
734.877	424.804
735.005	424.649
735.133	429.680
735.262	432.268
735.390	424.041
735.518	419.588
735.646	423.309
735.774	424.330
735.902	418.948
736.030	418.526
736.158	414.247
736.287	415.639
736.415	419.031
736.543	411.485
736.671	405.835
736.799	411.443
736.927	406.206
737.055	407.392
737.183	404.031
737.312	402.845
737.440	402.381
737.568	404.856
737.696	409.103
737.824	410.866
737.952	395.969
738.080	396.588
738.208	392.959
738.337	393.794
738.465	388.948
738.593	395.309
738.721	391.351
738.849	392.351
738.977	389.371
739.105	389.052
739.233	384.474
739.362	383.959
739.490	385.165
739.618	377.835
739.746	385.495
739.874	380.773
740.002	383.598
740.130	378.443
740.258	381.175
740.387	381.753
740.515	377.619
740.643	380.938
740.771	374.639
740.899	374.804
741.027	372.072
741.155	371.454
741.283	369.546
741.412	372.845
741.540	366.330
741.668	362.010
741.796	371.505
741.924	368.247
742.052	364.598
742.180	358.000
742.308	364.361
742.437	363.134
742.565	356.093
742.693	360.495
742.821	353.763
742.949	354.804
743.077	358.515
743.205	361.134
743.333	354.948
743.462	352.515
743.590	348.979
743.718	350.557
743.846	349.732
743.974	352.835
744.102	344.175
744.230	345.649
744.358	344.340
744.487	349.649
744.615	340.175
744.743	345.567
744.871	340.835
744.999	337.423
745.127	335.928
745.255	336.814
745.383	339.722
745.512	337.598
745.640	332.361
745.768	337.320
745.896	330.763
746.024	332.464
746.152	333.381
746.280	333.928
746.408	332.227
746.537	329.742
746.665	332.371
746.793	326.175
746.921	326.979
747.049	328.608
747.177	329.113
747.305	315.773
747.433	322.402
747.562	319.907
747.690	323.381
747.818	318.629
747.946	320.608
748.074	316.979
748.202	319.351
748.330	308.763
748.458	317.443
748.587	316.206
748.715	311.278
748.843	312.412
748.971	309.866
749.099	312.773
749.227	310.474
749.355	310.041
749.483	310.082
749.612	303.268
749.740	304.155
749.868	302.753
749.996	301.608
750.124	304.433
750.252	304.928
750.380	301.649
750.508	305.691
750.637	297.536
750.765	305.103
750.893	301.938
751.021	299.897
751.149	299.649
751.277	297.278
751.405	298.763
751.533	299.423
751.662	299.784
751.790	295.423
751.918	295.742
752.046	295.691
752.174	288.361
752.302	289.072
752.430	289.711
752.558	292.711
752.687	286.835
752.815	295.629
752.943	286.093
753.071	287.485
753.199	283.856
753.327	285.320
753.455	277.649
753.583	285.526
753.712	282.536
753.840	280.000
753.968	280.763
754.096	271.907
754.224	275.526
754.352	276.299
754.480	277.258
754.608	276.216
754.737	273.443
754.865	278.474
754.993	270.701
755.121	269.804
755.249	272.186
755.377	264.062
755.505	266.835
755.633	270.515
755.762	267.062
755.890	264.196
756.018	265.732
756.146	265.175
756.274	265.237
756.402	255.711
756.530	257.402
756.658	265.351
756.787	257.515
756.915	256.763
757.043	255.134
757.171	256.351
757.299	258.392
757.427	255.227
757.555	253.299
757.683	254.649
757.812	255.000
757.940	249.443
758.068	254.546
758.196	244.351
758.324	253.649
758.452	250.021
758.580	243.577
758.708	252.505
758.837	244.495
758.965	243.278
759.093	240.309
759.221	244.835
759.349	240.577
759.477	241.041
759.605	237.608
759.733	237.052
759.862	240.505
759.990	235.866
760.118	237.969
760.246	239.835
760.374	236.969
760.502	234.062
760.630	233.948
760.758	231.052
760.887	228.216
761.015	224.948
761.143	229.216
761.271	228.031
761.399	225.392
761.527	225.814
761.655	223.062
761.783	229.515
761.912	222.598
762.040	221.237
762.168	221.825
762.296	218.485
762.424	220.835
762.552	216.773
762.680	214.309
762.808	220.289
762.937	216.206
763.065	213.711
763.193	216.340
763.321	215.464
763.449	216.845
763.577	209.247
763.705	213.691
763.833	213.608
763.962	211.175
764.090	211.206
764.218	212.062
764.346	210.330
764.474	209.866
764.602	208.505
764.730	205.278
764.858	208.124
764.987	206.969
765.115	206.588
765.243	206.186
765.371	204.546
765.499	202.845
765.627	202.340
765.755	200.845
765.883	202.464
766.012	202.196
766.140	199.175
766.268	202.309
766.396	199.237
766.524	198.278
766.652	198.680
766.780	196.454
766.908	197.629
767.037	197.629
767.165	196.959
767.293	199.433
767.421	198.299
767.549	195.835
767.677	196.351
767.805	196.907
767.933	194.289
768.062	195.979
768.190	197.536
768.318	195.278
768.446	194.113
768.574	195.082
768.702	196.629
768.830	195.546
768.958	191.371
769.087	192.784
769.215	193.546
769.343	194.093
769.471	192.216
769.599	192.536
769.727	191.918
769.855	192.052
769.983	185.990
770.112	191.381
770.240	191.732
770.368	185.598
770.496	189.856
770.624	188.289
770.752	191.361
770.880	190.567
771.008	187.784
771.137	186.598
771.265	185.010
771.393	188.454
771.521	185.361
771.649	186.515
771.777	185.412
771.905	184.979
772.033	188.443
772.162	187.990
772.290	179.928
772.418	183.619
772.546	183.216
772.674	185.093
772.802	182.309
772.930	182.784
773.058	182.887
773.187	183.784
773.315	184.402
773.443	180.175
773.571	184.866
773.699	178.577
773.827	179.515
773.955	180.804
774.083	179.784
774.212	179.887
774.340	178.041
774.468	179.206
774.596	180.928
774.724	177.433
774.852	177.959
774.980	177.124
775.108	178.969
775.237	181.124
775.365	178.340
775.493	178.639
775.621	177.330
775.749	177.515
775.877	179.577
776.005	175.619
776.133	176.289
776.262	177.598
776.390	175.361
776.518	176.959
776.646	172.144
776.774	175.969
776.902	172.381
777.030	177.784
777.158	172.082
777.287	175.320
777.415	176.515
777.543	172.546
777.671	172.979
777.799	176.340
777.927	174.701
778.055	173.505
778.183	172.392
778.312	169.175
778.440	169.474
778.568	170.959
778.696	169.608
778.824	176.866
778.952	171.897
779.080	168.515
779.208	168.928
779.337	168.412
779.465	169.979
779.593	166.598
779.721	167.124
779.849	168.072
779.977	169.753
780.105	167.907
780.233	168.381
780.362	162.876
780.490	166.948
780.618	165.670
780.746	163.598
780.874	164.443
781.002	164.557
781.130	165.629
781.258	164.412
781.387	164.278
781.515	163.412
781.643	163.103
781.771	165.206
781.899	164.402
782.027	161.907
782.155	164.742
782.283	162.505
782.412	162.938
782.540	165.773
782.668	162.113
782.796	163.701
782.924	159.093
783.052	159.082
783.180	159.938
783.308	160.186
783.437	160.711
783.565	159.103
783.693	158.062
783.821	163.340
783.949	159.392
784.077	157.814
784.205	157.959
784.333	160.381
784.462	159.124
784.590	161.660
784.718	156.588
784.846	154.825
784.974	156.680
785.102	157.608
785.230	158.598
785.358	155.918
785.487	155.072
785.615	154.268
785.743	155.876
785.871	155.845
785.999	156.515
786.127	153.825
786.255	156.856
786.383	155.814
786.512	158.546
786.640	152.701
786.768	156.206
786.896	155.237
787.024	153.629
787.152	151.887
787.280	154.309
787.408	156.247
787.537	152.845
787.665	154.588
787.793	151.567
787.921	152.402
788.049	152.175
788.177	154.237
788.305	152.021
788.433	153.794
788.562	152.959
788.690	152.567
788.818	152.103
788.946	155.031
789.074	150.392
789.202	152.247
789.330	150.948
789.458	152.773
789.587	149.546
789.715	149.887
789.843	150.258
789.971	150.371
790.099	149.660
790.227	147.866
790.355	145.412
790.483	149.062
790.612	147.773
790.740	150.175
790.868	148.753
790.996	150.000
791.124	149.144
791.252	147.887
791.380	149.082
791.508	145.753
791.637	148.515
791.765	145.753
791.893	145.887
792.021	146.433
792.149	144.536
792.277	146.196
792.405	150.701
792.533	146.423
792.662	145.794
792.790	149.124
792.918	146.784
793.046	143.371
793.174	143.639
793.302	145.567
793.430	144.010
793.558	144.680
793.687	143.619
793.815	144.598
793.943	145.887
794.071	140.485
794.199	141.969
794.327	141.918
794.455	145.155
794.583	139.753
794.712	144.722
794.840	140.825
794.968	141.381
795.096	138.320
795.224	140.289
795.352	140.866
795.480	139.144
795.608	142.515
795.737	140.876
795.865	140.918
795.993	141.237
796.121	140.649
796.249	139.536
796.377	137.454
796.505	138.619
796.633	142.320
796.762	139.804
796.890	140.763
797.018	139.856
797.146	139.474
797.274	138.629
797.402	138.052
797.530	139.031
797.658	137.979
797.787	137.402
797.915	138.629
798.043	137.804
798.171	137.216
798.299	135.670
798.427	138.289
798.555	136.845
798.683	137.155
798.812	135.351
798.940	133.773
799.068	136.722
799.196	135.103
799.324	135.010
799.452	133.979
799.580	135.031
799.708	135.814
799.837	134.897
799.965	134.371
800.093	135.258
800.221	134.557
800.349	133.557
800.477	133.299
800.605	134.340
800.733	133.948
800.862	135.175
800.990	135.619
801.118	134.691
801.246	130.639
801.374	132.577
801.502	132.485
801.630	132.505
801.758	131.907
801.887	131.495
802.015	131.866
802.143	132.361
802.271	132.804
802.399	133.732
802.527	133.629
802.655	130.144
802.783	131.680
802.912	130.515
803.040	132.474
803.168	130.021
803.296	132.175
803.424	130.278
803.552	129.979
803.680	128.443
803.808	128.423
803.937	130.608
804.065	129.320
804.193	127.711
804.321	127.990
804.449	129.649
804.577	128.289
804.705	128.835
804.833	127.557
804.962	129.722
805.090	127.711
805.218	128.289
805.346	127.423
805.474	129.299
805.602	131.278
805.730	127.887
805.858	127.309
805.987	128.299
806.115	127.660
806.243	127.990
806.371	125.990
806.499	126.835
806.627	124.608
806.755	129.619
806.883	126.928
807.012	126.443
807.140	124.845
807.268	124.072
807.396	126.814
807.524	126.000
807.652	123.660
807.780	126.866
807.908	127.454
808.037	125.536
808.165	127.423
808.293	124.969
808.421	125.041
808.549	124.608
808.677	126.010
808.805	125.887
808.933	125.546
809.062	123.938
809.190	125.371
809.318	126.186
809.446	125.629
809.574	124.113
809.702	123.237
809.830	124.887
809.958	123.845
810.087	124.124
810.215	126.062
810.343	127.608
810.471	125.567
810.599	125.062
810.727	125.804
810.855	122.588
810.983	125.309
811.112	125.495
811.240	120.897
811.368	121.124
811.496	126.237
811.624	124.897
811.752	119.825
811.880	123.227
812.008	123.680
812.137	122.175
812.265	123.351
812.393	121.639
812.521	122.124
812.649	120.876
812.777	121.577
812.905	122.082
813.033	121.546
813.162	119.381
813.290	123.227
813.418	122.062
813.546	122.041
813.674	120.165
813.802	120.227
813.930	121.649
814.058	119.928
814.187	121.588
814.315	120.144
814.443	120.402
814.571	119.299
814.699	120.670
814.827	123.000
814.955	123.474
815.083	123.175
815.212	121.082
815.340	118.454
815.468	120.021
815.596	118.959
815.724	119.918
815.852	120.175
815.980	121.206
816.108	119.010
816.237	120.371
816.365	119.536
816.493	118.474
816.621	119.753
816.749	120.062
816.877	118.454
817.005	118.309
817.133	119.990
817.262	118.701
817.390	120.701
817.518	120.825
817.646	115.216
817.774	119.330
817.902	118.660
818.030	117.320
818.158	118.320
818.287	118.196
818.415	117.763
818.543	118.289
818.671	118.907
818.799	117.639
818.927	115.938
819.055	116.856
819.183	118.732
819.312	116.959
819.440	118.031
819.568	116.979
819.696	115.216
819.824	117.082
819.952	112.784
820.080	116.052
820.208	116.660
820.337	118.320
820.465	116.784
820.593	114.402
820.721	115.711
820.849	115.619
820.977	116.753
821.105	118.485
821.233	116.660
821.362	116.206
821.490	115.588
821.618	115.722
821.746	115.072
821.874	113.588
822.002	113.515
822.130	114.959
822.258	114.619
822.387	114.619
822.515	115.124
822.643	115.041
822.771	114.268
822.899	115.093
823.027	115.186
823.155	112.577
823.283	113.031
823.412	115.619
823.540	112.536
823.668	116.320
823.796	114.113
823.924	116.000
824.052	114.196
824.180	112.691
824.308	114.649
824.437	114.402
824.565	114.423
824.693	114.423
824.821	114.546
824.949	113.629
825.077	113.835
825.205	112.052
825.333	113.299
825.462	114.495
825.590	113.629
825.718	111.031
825.846	112.134
825.974	113.866
826.102	113.412
826.230	111.825
826.358	111.701
826.487	113.454
826.615	111.588
826.743	112.433
826.871	113.835
826.999	114.000
827.127	111.577
827.255	111.588
827.383	111.845
827.512	110.443
827.640	114.299
827.768	112.536
827.896	111.598
828.024	111.093
828.152	113.845
828.280	112.309
828.408	112.258
828.537	112.103
828.665	113.351
828.793	111.619
828.921	110.701
829.049	112.124
829.177	111.289
829.305	112.660
829.433	110.495
829.562	111.062
829.690	112.289
829.818	112.052
829.946	111.052
830.074	110.918
830.202	112.196
830.330	111.753
830.458	111.124
830.587	111.103
830.715	110.660
830.843	111.082
830.971	112.268
831.099	111.515
831.227	110.330
831.355	110.062
831.483	111.206
831.612	111.237
831.740	111.969
831.868	109.825
831.996	111.814
832.124	110.402
832.252	110.536
832.380	110.216
832.508	110.361
832.637	111.361
832.765	111.021
832.893	111.649
833.021	109.588
833.149	110.959
833.277	110.041
833.405	111.464
833.533	109.443
833.662	110.722
833.790	109.907
833.918	111.660
834.046	110.763
834.174	110.443
834.302	111.196
834.430	109.474
834.558	108.876
834.687	109.443
834.815	109.474
834.943	109.320
835.071	109.742
835.199	109.412
835.327	109.206
835.455	108.670
835.583	110.423
835.712	110.691
835.840	109.371
835.968	109.701
836.096	109.216
836.224	109.866
836.352	110.237
836.480	110.928
836.608	109.856
836.737	111.701
836.865	110.258
836.993	108.299
837.121	109.918
837.249	108.753
837.377	109.340
837.505	108.845
837.633	108.010
837.762	108.423
837.890	108.433
838.018	108.031
838.146	108.639
838.274	107.928
838.402	108.784
838.530	108.474
838.658	108.062
838.787	108.876
838.915	109.711
839.043	109.443
839.171	108.866
839.299	108.392
839.427	109.361
839.555	108.598
839.683	110.082
839.812	108.711
839.940	108.794
840.068	107.629
840.196	108.660
840.324	108.845
840.452	108.093
840.580	106.186
840.708	108.649
840.837	107.784
840.965	108.856
841.093	108.670
841.221	108.144
841.349	110.794
841.477	108.722
841.605	108.289
841.733	106.660
841.862	107.701
841.990	108.660
842.118	108.216
842.246	107.619
842.374	107.536
842.502	107.876
842.630	107.649
842.758	106.918
842.887	106.784
843.015	106.969
843.143	107.175
843.271	108.577
843.399	108.619
843.527	107.505
843.655	107.536
843.783	108.031
843.912	107.619
844.040	108.320
844.168	109.804
844.296	108.505
844.424	107.289
844.552	107.206
844.680	106.742
844.808	108.392
844.937	109.062
845.065	107.175
845.193	107.031
845.321	106.577
845.449	106.598
845.577	106.742
845.705	107.021
845.833	108.866
845.962	107.412
846.090	106.062
846.218	106.619
846.346	107.330
846.474	106.165
846.602	106.866
846.730	107.258
846.858	106.309
846.987	106.165
847.115	106.103
847.243	106.825
847.371	107.773
847.499	105.835
847.627	107.124
847.755	106.897
847.883	106.649
848.012	106.649
848.140	106.680
848.268	105.990
848.396	106.093
848.524	107.557
848.652	108.742
848.780	106.701
848.908	107.278
849.037	108.113
849.165	107.000
849.293	105.278
849.421	106.495
849.549	106.412
849.677	106.010
849.805	107.412
849.933	107.309
850.062	107.361
850.190	105.969
850.318	106.856
850.446	106.629
850.574	105.732
850.702	106.443
850.830	105.763
850.958	104.680
851.087	106.175
851.215	105.680
851.343	104.371
851.471	105.433
851.599	106.361
851.727	104.515
851.855	105.907
851.983	105.454
852.112	104.464
852.240	105.948
852.368	105.969
852.496	104.515
852.624	104.722
852.752	104.247
852.880	105.330
853.008	104.619
853.137	105.907
853.265	105.784
853.393	104.701
853.521	106.320
853.649	106.175
853.777	105.804
853.905	104.866
854.033	104.031
854.162	105.103
854.290	104.495
854.418	104.196
854.546	104.381
854.674	105.010
854.802	104.856
854.930	105.144
855.058	105.113
855.187	105.526
855.315	104.814
855.443	105.412
855.571	106.031
855.699	106.948
855.827	105.412
855.955	104.567
856.083	104.485
856.212	105.598
856.340	105.402
856.468	105.227
856.596	104.443
856.724	104.443
856.852	103.979
856.980	103.629
857.108	104.495
857.237	103.124
857.365	104.845
857.493	104.495
857.621	103.701
857.749	103.722
857.877	104.010
858.005	105.918
858.133	103.918
858.262	104.990
858.390	106.103
858.518	103.691
858.646	104.423
858.774	104.464
858.902	104.227
859.030	105.041
859.158	103.938
859.287	104.320
859.415	104.330
859.543	104.443
859.671	106.381
859.799	106.959
859.927	105.381
860.055	103.186
860.183	103.732
860.312	103.990
860.440	102.402
860.568	103.742
860.696	103.423
860.824	105.175
860.952	103.608
861.080	103.433
861.208	104.546
861.337	103.515
861.465	103.340
861.593	103.423
861.721	104.216
861.849	104.134
861.977	103.392
862.105	103.474
862.233	102.948
862.362	103.639
862.490	103.835
862.618	104.443
862.746	103.629
862.874	105.546
863.002	103.773
863.130	103.742
863.258	103.680
863.387	103.598
863.515	103.959
863.643	102.186
863.771	103.392
863.899	104.433
864.027	104.330
864.155	103.814
864.283	102.773
864.412	104.381
864.540	104.278
864.668	103.247
864.796	104.144
864.924	103.763
865.052	101.969
865.180	103.701
865.308	104.381
865.437	104.433
865.565	102.588
865.693	101.753
865.821	102.423
865.949	103.495
866.077	105.124
866.205	103.113
866.333	103.289
866.462	103.598
866.590	103.897
866.718	104.485
866.846	105.175
866.974	103.639
867.102	103.918
867.230	103.742
867.358	103.155
867.487	103.804
867.615	102.433
867.743	103.918
867.871	103.237
867.999	103.866
868.127	102.072
868.255	103.454
868.383	103.660
868.512	103.299
868.640	103.443
868.768	104.711
868.896	103.557
869.024	103.258
869.152	101.938
869.280	104.010
869.408	103.691
869.537	103.258
869.665	102.948
869.793	103.639
869.921	104.041
870.049	104.186
870.177	103.835
870.305	104.433
870.433	103.918
870.562	103.722
870.690	101.691
870.818	102.371
870.946	103.670
871.074	103.000
871.202	102.186
871.330	103.649
871.458	103.649
871.587	103.474
871.715	102.412
871.843	103.897
871.971	102.670
872.099	100.691
872.227	101.381
872.355	101.093
872.483	101.763
872.612	102.887
872.740	102.247
872.868	103.052
872.996	101.701
873.124	102.381
873.252	103.103
873.380	102.588
873.508	103.082
873.637	102.773
873.765	102.186
873.893	101.773
874.021	102.495
874.149	103.629
874.277	103.546
874.405	102.969
874.533	102.825
874.662	101.619
874.790	101.773
874.918	101.649
875.046	101.557
875.174	102.041
875.302	102.392
875.430	101.557
875.558	101.546
875.687	100.948
875.815	103.124
875.943	101.722
876.071	103.680
876.199	103.320
876.327	102.959
876.455	102.845
876.583	102.907
876.712	102.454
876.840	100.443
876.968	102.103
877.096	103.320
877.224	102.814
877.352	102.320
877.480	102.536
877.608	103.082
877.737	102.845
877.865	100.608
877.993	101.227
878.121	101.835
878.249	101.340
878.377	101.268
878.505	101.948
878.633	103.041
878.762	103.165
878.890	101.464
879.018	101.515
879.146	101.928
879.274	101.443
879.402	103.175
879.530	101.948
879.658	103.237
879.787	101.608
879.915	100.918
880.043	102.330
880.171	102.567
880.299	101.010
880.427	101.165
880.555	101.732
880.683	101.691
880.812	102.567
880.940	101.392
881.068	102.247
881.196	101.784
881.324	102.804
881.452	101.887
881.580	100.979
881.708	100.784
881.837	101.979
881.965	100.309
882.093	102.227
882.221	101.474
882.349	100.515
882.477	101.825
882.605	102.546
882.733	101.845
882.862	101.247
882.990	101.680
883.118	102.804
883.246	101.660
883.374	101.660
883.502	101.278
883.630	102.691
883.758	101.814
883.887	100.485
884.015	102.278
884.143	102.567
884.271	101.454
884.399	102.196
884.527	101.196
884.655	102.361
884.783	102.485
884.912	101.969
885.040	101.711
885.168	101.113
885.296	101.258
885.424	101.969
885.552	102.144
885.680	100.515
885.808	100.093
885.937	101.567
886.065	100.598
886.193	101.546
886.321	101.959
886.449	101.814
886.577	101.948
886.705	102.010
886.833	100.907
886.962	102.021
887.090	100.763
887.218	101.753
887.346	100.082
887.474	102.206
887.602	102.021
887.730	100.186
887.858	101.629
887.987	100.825
888.115	100.505
888.243	102.041
888.371	101.278
888.499	101.237
888.627	100.608
888.755	100.361
888.883	100.887
889.012	101.443
889.140	101.052
889.268	100.948
889.396	100.990
889.524	101.392
889.652	101.247
889.780	100.526
889.908	100.216
890.037	100.794
890.165	101.134
890.293	101.794
890.421	101.753
890.549	100.763
890.677	100.464
890.805	100.732
890.933	100.423
891.062	100.165
891.190	100.619
891.318	101.773
891.446	100.814
891.574	100.732
891.702	100.186
891.830	99.990
891.958	100.247
892.087	100.773
892.215	101.041
892.343	100.546
892.471	100.144
892.599	100.959
892.727	101.866
892.855	101.887
892.983	102.351
893.112	100.546
893.240	101.206
893.368	101.619
893.496	102.773
893.624	100.887
893.752	100.629
893.880	100.474
894.008	101.608
894.137	100.557
894.265	100.557
894.393	101.299
894.521	100.423
894.649	101.227
894.777	101.227
894.905	100.990
895.033	102.753
895.162	101.588
895.290	100.722
895.418	102.082
895.546	102.474
895.674	99.969
895.802	100.680
895.930	101.144
896.058	100.216
896.187	101.495
896.315	101.691
896.443	101.454
896.571	101.351
896.699	102.206
896.827	100.773
896.955	100.526
897.083	101.577
897.212	101.990
897.340	100.485
897.468	99.557
897.596	100.969
897.724	100.381
897.852	100.423
897.980	101.227
898.108	99.433
898.237	99.495
898.365	100.155
898.493	101.526
898.621	100.371
898.749	101.351
898.877	99.557
899.005	100.443
899.133	101.196
899.262	101.175
899.390	99.454
899.518	101.351
899.646	100.608
899.774	101.660
899.902	100.320
900.030	100.928
900.158	100.495
900.287	101.361
900.415	100.918
900.543	100.907
900.671	102.433
900.799	100.856
900.927	100.474
901.055	99.495
901.183	100.093
901.312	101.093
901.440	101.887
901.568	100.309
901.696	99.010
901.824	99.691
901.952	101.237
902.080	99.784
902.208	100.423
902.337	100.722
902.465	99.598
902.593	100.814
902.721	101.660
902.849	99.969
902.977	99.588
903.105	100.959
903.233	100.845
903.362	101.979
903.490	99.371
903.618	100.196
903.746	99.918
903.874	101.134
904.002	100.928
904.130	101.144
904.258	99.897
904.387	101.134
904.515	100.134
904.643	102.072
904.771	101.021
904.899	100.155
905.027	100.495
905.155	100.268
905.283	99.505
905.412	100.196
905.540	100.247
905.668	99.948
905.796	99.062
905.924	100.041
906.052	100.763
906.180	100.577
906.308	99.247
906.437	99.577
906.565	100.887
906.693	100.784
906.821	98.567
906.949	99.062
907.077	99.979
907.205	101.423
907.333	100.680
907.462	102.206
907.590	101.175
907.718	99.454
907.846	100.041
907.974	101.660
908.102	102.258
908.230	99.588
908.358	99.835
908.487	100.196
908.615	100.722
908.743	100.289
908.871	100.660
908.999	100.206
909.127	100.144
909.255	101.392
909.383	100.536
909.512	100.237
909.640	100.381
909.768	100.113
909.896	101.443
910.024	101.247
910.152	101.567
910.280	100.340
910.408	101.866
910.537	102.577
910.665	102.052
910.793	100.680
910.921	100.505
911.049	100.247
911.177	98.897
911.305	99.938
911.433	101.351
911.562	100.784
911.690	101.031
911.818	101.175
911.946	100.515
912.074	100.938
912.202	101.093
912.330	100.773
912.458	100.670
912.587	100.113
912.715	100.670
912.843	100.691
912.971	100.670
913.099	101.155
913.227	100.010
913.355	100.485
913.483	99.897
913.612	101.619
913.740	101.969
913.868	99.948
