sample16v_at_750.00nm_cut_at_1060.50Y_01.dat
19.06.2023
11:24:03
cut middle at Y: 1060.50
top cursor: 1109 down cursor: 1012 mean of: 97 lines , 2560 datapoints
wavelength(nm)	intensity[arb. units]
585.996	906.959
586.124	858.268
586.252	858.742
586.380	856.907
586.508	864.722
586.637	861.722
586.765	866.784
586.893	869.268
587.021	870.216
587.149	865.907
587.277	867.371
587.405	877.134
587.533	869.742
587.662	872.485
587.790	877.876
587.918	865.680
588.046	874.918
588.174	874.711
588.302	874.495
588.430	873.701
588.558	871.072
588.687	871.258
588.815	882.938
588.943	877.845
589.071	869.072
589.199	880.000
589.327	881.588
589.455	877.485
589.583	878.866
589.712	875.258
589.840	881.454
589.968	871.237
590.096	884.052
590.224	877.639
590.352	873.515
590.480	874.402
590.608	882.268
590.737	868.351
590.865	879.433
590.993	885.856
591.121	880.485
591.249	874.423
591.377	870.722
591.505	866.371
591.633	866.990
591.762	884.196
591.890	887.897
592.018	881.320
592.146	874.186
592.274	879.433
592.402	876.196
592.530	874.711
592.658	884.536
592.787	876.918
592.915	884.392
593.043	885.155
593.171	885.948
593.299	900.701
593.427	885.711
593.555	885.948
593.683	894.371
593.812	890.103
593.940	902.887
594.068	900.144
594.196	918.402
594.324	903.227
594.452	909.258
594.580	907.990
594.708	906.031
594.837	912.351
594.965	915.887
595.093	919.557
595.221	914.948
595.349	922.155
595.477	917.794
595.605	920.320
595.733	933.175
595.862	925.196
595.990	933.474
596.118	932.381
596.246	941.268
596.374	932.784
596.502	948.082
596.630	947.979
596.758	939.196
596.887	943.856
597.015	950.876
597.143	944.330
597.271	949.454
597.399	942.155
597.527	949.010
597.655	946.206
597.783	952.474
597.912	952.907
598.040	954.773
598.168	947.876
598.296	933.876
598.424	941.948
598.552	947.794
598.680	941.546
598.808	940.093
598.937	943.237
599.065	950.299
599.193	938.670
599.321	930.856
599.449	937.948
599.577	941.443
599.705	940.062
599.833	940.598
599.962	940.722
600.090	942.701
600.218	935.876
600.346	941.021
600.474	945.351
600.602	948.082
600.730	949.052
600.858	949.464
600.987	941.309
601.115	940.835
601.243	937.732
601.371	941.825
601.499	948.155
601.627	944.216
601.755	953.165
601.883	950.361
602.012	957.732
602.140	951.186
602.268	959.237
602.396	947.165
602.524	962.052
602.652	967.608
602.780	972.485
602.908	968.031
603.037	977.361
603.165	978.093
603.293	986.402
603.421	986.278
603.549	991.052
603.677	993.701
603.805	984.433
603.933	996.175
604.062	1001.206
604.190	1007.845
604.318	1012.124
604.446	1005.660
604.574	1011.897
604.702	1009.773
604.830	1010.155
604.958	1021.784
605.087	1025.340
605.215	1029.021
605.343	1033.691
605.471	1042.144
605.599	1040.515
605.727	1041.979
605.855	1039.464
605.983	1045.990
606.112	1046.412
606.240	1055.907
606.368	1051.804
606.496	1053.856
606.624	1052.794
606.752	1057.278
606.880	1047.794
607.008	1052.918
607.137	1058.000
607.265	1059.423
607.393	1072.206
607.521	1059.072
607.649	1062.804
607.777	1057.763
607.905	1060.505
608.033	1065.763
608.162	1058.144
608.290	1065.309
608.418	1061.392
608.546	1060.155
608.674	1063.000
608.802	1058.907
608.930	1064.299
609.058	1056.938
609.187	1060.443
609.315	1054.361
609.443	1055.423
609.571	1057.381
609.699	1058.041
609.827	1055.423
609.955	1058.278
610.083	1055.155
610.212	1053.072
610.340	1056.196
610.468	1057.876
610.596	1065.588
610.724	1063.536
610.852	1060.814
610.980	1054.918
611.108	1059.433
611.237	1062.680
611.365	1062.876
611.493	1062.588
611.621	1064.639
611.749	1076.454
611.877	1061.680
612.005	1073.722
612.133	1069.701
612.262	1079.990
612.390	1072.804
612.518	1071.000
612.646	1076.639
612.774	1087.113
612.902	1086.732
613.030	1080.010
613.158	1089.258
613.287	1091.443
613.415	1093.082
613.543	1093.711
613.671	1097.474
613.799	1091.835
613.927	1100.495
614.055	1107.722
614.183	1102.701
614.312	1105.196
614.440	1107.773
614.568	1108.577
614.696	1122.124
614.824	1125.670
614.952	1120.309
615.080	1137.216
615.208	1128.340
615.337	1136.021
615.465	1131.979
615.593	1137.557
615.721	1143.897
615.849	1141.990
615.977	1144.876
616.105	1145.619
616.233	1162.742
616.362	1155.320
616.490	1147.247
616.618	1156.278
616.746	1144.969
616.874	1164.495
617.002	1164.629
617.130	1167.495
617.258	1155.093
617.387	1153.289
617.515	1172.309
617.643	1168.876
617.771	1173.794
617.899	1167.557
618.027	1158.031
618.155	1170.227
618.283	1166.979
618.412	1172.732
618.540	1178.289
618.668	1175.505
618.796	1163.567
618.924	1174.134
619.052	1173.588
619.180	1176.588
619.308	1181.619
619.437	1173.691
619.565	1185.289
619.693	1176.392
619.821	1175.866
619.949	1177.155
620.077	1176.804
620.205	1178.144
620.333	1178.206
620.462	1194.577
620.590	1184.052
620.718	1179.763
620.846	1184.216
620.974	1181.536
621.102	1184.021
621.230	1185.701
621.358	1188.835
621.487	1179.505
621.615	1182.351
621.743	1189.454
621.871	1192.515
621.999	1179.495
622.127	1191.505
622.255	1197.619
622.383	1183.918
622.512	1191.567
622.640	1185.258
622.768	1189.557
622.896	1184.454
623.024	1180.691
623.152	1183.371
623.280	1178.124
623.408	1185.505
623.537	1186.093
623.665	1194.619
623.793	1188.423
623.921	1182.041
624.049	1183.134
624.177	1188.897
624.305	1188.526
624.433	1185.227
624.562	1182.155
624.690	1174.454
624.818	1177.093
624.946	1181.557
625.074	1173.144
625.202	1185.742
625.330	1183.371
625.458	1189.485
625.587	1183.423
625.715	1180.021
625.843	1179.588
625.971	1189.237
626.099	1187.392
626.227	1193.567
626.355	1172.794
626.483	1194.814
626.612	1180.082
626.740	1179.351
626.868	1191.485
626.996	1193.660
627.124	1183.351
627.252	1184.680
627.380	1192.969
627.508	1191.495
627.637	1188.258
627.765	1196.268
627.893	1202.237
628.021	1188.784
628.149	1199.515
628.277	1205.526
628.405	1200.691
628.533	1206.794
628.662	1195.598
628.790	1216.577
628.918	1208.216
629.046	1206.825
629.174	1208.639
629.302	1216.278
629.430	1210.515
629.558	1221.464
629.687	1219.237
629.815	1210.485
629.943	1225.021
630.071	1218.464
630.199	1229.784
630.327	1218.134
630.455	1222.206
630.583	1224.268
630.712	1227.907
630.840	1227.330
630.968	1232.165
631.096	1244.588
631.224	1232.186
631.352	1229.887
631.480	1227.918
631.608	1235.845
631.737	1236.093
631.865	1240.722
631.993	1237.629
632.121	1238.876
632.249	1238.660
632.377	1243.577
632.505	1236.804
632.633	1231.619
632.762	1237.031
632.890	1247.175
633.018	1239.814
633.146	1237.969
633.274	1240.278
633.402	1241.021
633.530	1242.454
633.658	1237.175
633.787	1238.835
633.915	1229.845
634.043	1234.041
634.171	1236.660
634.299	1245.928
634.427	1232.320
634.555	1235.412
634.683	1240.691
634.812	1239.000
634.940	1243.196
635.068	1219.155
635.196	1233.866
635.324	1244.412
635.452	1232.196
635.580	1226.773
635.708	1221.649
635.837	1215.928
635.965	1218.021
636.093	1213.546
636.221	1206.258
636.349	1207.381
636.477	1200.526
636.605	1217.598
636.733	1215.216
636.862	1200.866
636.990	1199.113
637.118	1209.794
637.246	1194.320
637.374	1200.216
637.502	1206.155
637.630	1202.907
637.758	1196.227
637.887	1196.742
638.015	1190.196
638.143	1199.423
638.271	1188.619
638.399	1181.495
638.527	1186.876
638.655	1188.619
638.783	1191.237
638.912	1189.557
639.040	1185.309
639.168	1182.495
639.296	1182.959
639.424	1192.979
639.552	1185.278
639.680	1187.237
639.808	1167.825
639.937	1172.320
640.065	1171.577
640.193	1186.371
640.321	1176.598
640.449	1177.753
640.577	1177.825
640.705	1172.216
640.833	1169.660
640.962	1193.031
641.090	1176.144
641.218	1184.784
641.346	1175.969
641.474	1179.825
641.602	1183.206
641.730	1184.072
641.858	1180.711
641.987	1171.722
642.115	1173.691
642.243	1181.969
642.371	1184.093
642.499	1168.144
642.627	1178.948
642.755	1165.113
642.883	1191.258
643.012	1167.289
643.140	1184.835
643.268	1190.526
643.396	1180.567
643.524	1173.124
643.652	1184.062
643.780	1172.763
643.908	1178.608
644.037	1185.495
644.165	1183.082
644.293	1184.866
644.421	1174.536
644.549	1184.113
644.677	1183.979
644.805	1179.340
644.933	1186.134
645.062	1180.165
645.190	1183.474
645.318	1176.361
645.446	1190.969
645.574	1184.082
645.702	1187.299
645.830	1182.289
645.958	1187.485
646.087	1185.433
646.215	1188.423
646.343	1189.557
646.471	1186.505
646.599	1189.289
646.727	1189.340
646.855	1175.629
646.983	1187.423
647.112	1186.196
647.240	1181.938
647.368	1176.093
647.496	1169.505
647.624	1178.216
647.752	1171.990
647.880	1168.155
648.008	1162.856
648.137	1161.794
648.265	1154.021
648.393	1171.402
648.521	1172.041
648.649	1164.309
648.777	1152.701
648.905	1157.711
649.033	1151.598
649.162	1157.041
649.290	1153.247
649.418	1138.454
649.546	1136.320
649.674	1151.959
649.802	1148.546
649.930	1145.227
650.058	1145.134
650.187	1149.753
650.315	1152.990
650.443	1145.907
650.571	1144.381
650.699	1132.588
650.827	1140.186
650.955	1127.979
651.083	1132.536
651.212	1135.124
651.340	1125.742
651.468	1128.959
651.596	1123.959
651.724	1131.629
651.852	1119.299
651.980	1129.412
652.108	1129.773
652.237	1114.784
652.365	1107.928
652.493	1114.969
652.621	1098.804
652.749	1108.371
652.877	1109.866
653.005	1110.289
653.133	1108.371
653.262	1104.938
653.390	1099.876
653.518	1100.175
653.646	1091.361
653.774	1095.113
653.902	1106.649
654.030	1096.412
654.158	1092.371
654.287	1090.526
654.415	1091.103
654.543	1092.649
654.671	1083.495
654.799	1079.134
654.927	1085.278
655.055	1074.897
655.183	1077.608
655.312	1068.866
655.440	1078.649
655.568	1076.711
655.696	1075.856
655.824	1075.340
655.952	1063.577
656.080	1070.546
656.208	1067.278
656.337	1057.948
656.465	1055.598
656.593	1056.773
656.721	1070.103
656.849	1066.948
656.977	1058.753
657.105	1052.247
657.233	1054.485
657.362	1044.784
657.490	1048.918
657.618	1047.361
657.746	1049.959
657.874	1041.557
658.002	1039.536
658.130	1032.649
658.258	1041.268
658.387	1042.381
658.515	1038.175
658.643	1035.938
658.771	1030.371
658.899	1025.938
659.027	1022.938
659.155	1028.113
659.283	1023.330
659.412	1020.423
659.540	1022.969
659.668	1016.794
659.796	1006.969
659.924	1017.268
660.052	1005.835
660.180	1000.763
660.308	1008.918
660.437	1008.680
660.565	1010.845
660.693	1000.773
660.821	1001.588
660.949	1007.000
661.077	999.515
661.205	995.412
661.333	985.732
661.462	1003.247
661.590	992.361
661.718	985.299
661.846	982.320
661.974	990.196
662.102	986.330
662.230	974.309
662.358	983.814
662.487	977.062
662.615	977.948
662.743	979.268
662.871	980.948
662.999	976.423
663.127	969.680
663.255	981.629
663.383	975.010
663.512	973.351
663.640	973.062
663.768	963.361
663.896	970.938
664.024	973.938
664.152	969.907
664.280	969.959
664.408	956.557
664.537	971.660
664.665	961.392
664.793	962.165
664.921	951.763
665.049	963.773
665.177	957.113
665.305	961.495
665.433	952.753
665.562	961.928
665.690	951.330
665.818	955.763
665.946	950.959
666.074	948.392
666.202	953.959
666.330	950.536
666.458	950.258
666.587	949.660
666.715	957.361
666.843	944.299
666.971	941.608
667.099	946.876
667.227	955.763
667.355	947.113
667.483	947.278
667.612	950.701
667.740	937.856
667.868	935.433
667.996	936.485
668.124	945.392
668.252	937.361
668.380	933.093
668.508	938.062
668.637	928.732
668.765	932.505
668.893	927.443
669.021	933.062
669.149	915.371
669.277	922.938
669.405	912.567
669.533	922.773
669.662	922.897
669.790	915.041
669.918	923.433
670.046	911.082
670.174	917.330
670.302	908.990
670.430	906.433
670.558	907.474
670.687	906.206
670.815	893.041
670.943	904.072
671.071	893.052
671.199	898.557
671.327	893.299
671.455	882.680
671.583	888.206
671.712	887.567
671.840	887.742
671.968	888.340
672.096	879.392
672.224	880.268
672.352	868.773
672.480	875.722
672.608	867.423
672.737	870.010
672.865	857.938
672.993	862.753
673.121	859.670
673.249	865.856
673.377	851.794
673.505	856.598
673.633	845.340
673.762	846.546
673.890	845.155
674.018	848.948
674.146	835.103
674.274	841.670
674.402	834.546
674.530	825.175
674.658	823.629
674.787	822.856
674.915	829.031
675.043	816.186
675.171	828.010
675.299	813.598
675.427	818.856
675.555	818.660
675.683	808.134
675.812	804.763
675.940	797.268
676.068	802.732
676.196	791.526
676.324	795.794
676.452	790.598
676.580	786.835
676.708	787.515
676.837	797.103
676.965	784.216
677.093	787.670
677.221	784.701
677.349	769.495
677.477	778.959
677.605	769.918
677.733	775.320
677.862	769.124
677.990	761.691
678.118	763.144
678.246	764.948
678.374	758.990
678.502	752.278
678.630	754.629
678.758	751.711
678.887	753.371
679.015	755.371
679.143	746.454
679.271	742.165
679.399	743.433
679.527	739.722
679.655	733.495
679.783	733.495
679.912	725.577
680.040	733.103
680.168	740.175
680.296	725.907
680.424	727.309
680.552	723.938
680.680	722.155
680.808	718.021
680.937	721.515
681.065	717.814
681.193	715.639
681.321	706.536
681.449	717.392
681.577	714.113
681.705	706.247
681.833	704.722
681.962	704.711
682.090	708.887
682.218	703.124
682.346	703.289
682.474	700.763
682.602	704.649
682.730	696.701
682.858	694.340
682.987	701.196
683.115	695.423
683.243	694.082
683.371	697.072
683.499	693.660
683.627	693.381
683.755	684.309
683.883	694.969
684.012	688.825
684.140	687.928
684.268	685.351
684.396	687.237
684.524	687.887
684.652	680.629
684.780	691.278
684.908	683.289
685.037	684.918
685.165	679.340
685.293	681.495
685.421	682.691
685.549	676.113
685.677	674.000
685.805	670.794
685.933	676.299
686.062	665.505
686.190	670.474
686.318	662.309
686.446	669.196
686.574	662.021
686.702	665.835
686.830	667.371
686.958	661.608
687.087	660.948
687.215	658.464
687.343	655.258
687.471	660.082
687.599	649.433
687.727	652.784
687.855	646.196
687.983	646.557
688.112	656.887
688.240	643.784
688.368	649.505
688.496	647.515
688.624	648.856
688.752	641.794
688.880	642.979
689.008	633.722
689.137	637.216
689.265	635.639
689.393	632.907
689.521	632.918
689.649	636.938
689.777	637.206
689.905	624.165
690.033	625.598
690.162	623.660
690.290	621.289
690.418	624.237
690.546	616.412
690.674	624.052
690.802	611.495
690.930	609.072
691.058	611.918
691.187	610.247
691.315	608.289
691.443	604.938
691.571	606.216
691.699	598.990
691.827	607.639
691.955	596.505
692.083	604.526
692.212	602.938
692.340	592.536
692.468	598.041
692.596	592.474
692.724	592.835
692.852	583.309
692.980	588.814
693.108	581.907
693.237	585.505
693.365	584.103
693.493	585.742
693.621	579.907
693.749	574.021
693.877	571.340
694.005	568.557
694.133	564.608
694.262	566.969
694.390	562.113
694.518	556.371
694.646	557.113
694.774	568.557
694.902	557.165
695.030	565.103
695.158	555.454
695.287	550.093
695.415	544.649
695.543	546.825
695.671	552.990
695.799	548.031
695.927	541.680
696.055	537.464
696.183	543.526
696.312	544.907
696.440	538.196
696.568	539.155
696.696	528.907
696.824	530.711
696.952	531.825
697.080	527.351
697.208	538.155
697.337	520.485
697.465	528.000
697.593	527.278
697.721	522.680
697.849	520.165
697.977	520.124
698.105	513.155
698.233	527.619
698.362	513.907
698.490	509.711
698.618	509.959
698.746	504.979
698.874	507.021
699.002	504.691
699.130	501.866
699.258	502.515
699.387	500.763
699.515	497.423
699.643	499.330
699.771	498.412
699.899	499.660
700.027	497.186
700.155	494.680
700.283	493.000
700.412	486.000
700.540	489.309
700.668	484.340
700.796	484.093
700.924	479.598
701.052	479.784
701.180	481.371
701.308	484.598
701.437	470.701
701.565	477.835
701.693	471.278
701.821	470.155
701.949	466.938
702.077	471.804
702.205	468.371
702.333	461.959
702.462	458.804
702.590	455.495
702.718	459.010
702.846	456.546
702.974	455.113
703.102	452.031
703.230	450.330
703.358	447.804
703.487	439.351
703.615	441.464
703.743	445.093
703.871	441.804
703.999	438.268
704.127	441.186
704.255	435.990
704.383	436.433
704.512	433.928
704.640	436.134
704.768	423.887
704.896	423.876
705.024	426.526
705.152	427.361
705.280	424.062
705.408	425.897
705.537	419.845
705.665	420.711
705.793	412.165
705.921	413.227
706.049	411.907
706.177	412.443
706.305	414.351
706.433	408.155
706.562	402.639
706.690	402.278
706.818	408.732
706.946	404.371
707.074	402.711
707.202	392.887
707.330	398.134
707.458	400.402
707.587	397.588
707.715	397.773
707.843	388.784
707.971	392.247
708.099	389.794
708.227	389.144
708.355	388.000
708.483	383.557
708.612	385.897
708.740	385.237
708.868	378.155
708.996	382.340
709.124	379.031
709.252	372.918
709.380	381.103
709.508	376.608
709.637	377.299
709.765	375.237
709.893	368.351
710.021	368.608
710.149	368.567
710.277	371.021
710.405	367.082
710.533	366.515
710.662	363.309
710.790	369.969
710.918	364.103
711.046	365.732
711.174	365.897
711.302	361.155
711.430	362.835
711.558	354.227
711.687	356.155
711.815	357.000
711.943	355.577
712.071	355.577
712.199	351.763
712.327	352.567
712.455	349.711
712.583	355.732
712.712	354.247
712.840	347.175
712.968	348.371
713.096	350.608
713.224	344.907
713.352	345.103
713.480	345.103
713.608	341.711
713.737	341.608
713.865	341.124
713.993	338.959
714.121	337.928
714.249	340.557
714.377	339.598
714.505	339.742
714.633	332.495
714.762	337.619
714.890	334.093
715.018	338.649
715.146	332.495
715.274	329.588
715.402	334.186
715.530	329.907
715.658	332.691
715.787	329.216
715.915	325.021
716.043	327.598
716.171	332.557
716.299	326.866
716.427	325.433
716.555	322.845
716.683	322.557
716.812	326.598
716.940	317.887
717.068	320.598
717.196	324.794
717.324	318.340
717.452	317.309
717.580	316.959
717.708	318.856
717.837	311.485
717.965	316.000
718.093	316.928
718.221	308.577
718.349	310.474
718.477	310.577
718.605	311.835
718.733	309.299
718.862	306.340
718.990	307.608
719.118	311.320
719.246	304.990
719.374	306.371
719.502	305.402
719.630	300.928
719.758	301.495
719.887	299.505
720.015	302.567
720.143	299.474
720.271	299.948
720.399	301.010
720.527	295.773
720.655	295.402
720.783	295.196
720.912	290.959
721.040	293.835
721.168	290.237
721.296	286.268
721.424	289.021
721.552	289.165
721.680	286.608
721.808	289.031
721.937	281.320
722.065	287.186
722.193	281.031
722.321	282.330
722.449	277.536
722.577	283.175
722.705	279.701
722.833	277.103
722.962	276.340
723.090	273.959
723.218	274.577
723.346	274.175
723.474	274.897
723.602	273.742
723.730	267.526
723.858	270.165
723.987	269.887
724.115	265.186
724.243	268.567
724.371	267.722
724.499	267.175
724.627	264.299
724.755	263.454
724.883	265.794
725.012	261.289
725.140	262.082
725.268	266.103
725.396	261.433
725.524	257.649
725.652	254.402
725.780	255.144
725.908	254.660
726.037	248.918
726.165	253.103
726.293	247.938
726.421	250.041
726.549	246.670
726.677	247.928
726.805	250.825
726.933	246.732
727.062	246.598
727.190	246.515
727.318	245.907
727.446	242.969
727.574	246.309
727.702	248.175
727.830	243.464
727.958	240.907
728.087	239.753
728.215	234.536
728.343	237.474
728.471	241.330
728.599	239.753
728.727	241.113
728.855	238.320
728.983	238.577
729.112	229.753
729.240	231.742
729.368	230.680
729.496	235.412
729.624	235.433
729.752	235.515
729.880	230.598
730.008	231.144
730.137	228.660
730.265	232.371
730.393	225.072
730.521	228.485
730.649	227.072
730.777	223.557
730.905	224.979
731.033	223.402
731.162	227.186
731.290	225.031
731.418	224.227
731.546	222.052
731.674	221.557
731.802	220.000
731.930	217.948
732.058	219.299
732.187	224.309
732.315	221.835
732.443	220.268
732.571	217.773
732.699	218.526
732.827	216.175
732.955	215.000
733.083	217.082
733.212	214.072
733.340	216.897
733.468	214.093
733.596	211.670
733.724	208.361
733.852	214.351
733.980	208.505
734.108	210.825
734.237	210.546
734.365	209.567
734.493	208.247
734.621	210.598
734.749	211.454
734.877	210.979
735.005	207.361
735.133	206.082
735.262	206.093
735.390	207.134
735.518	205.701
735.646	203.629
735.774	206.361
735.902	201.773
736.030	203.247
736.158	205.309
736.287	204.237
736.415	207.876
736.543	203.959
736.671	203.340
736.799	199.433
736.927	202.021
737.055	201.361
737.183	201.041
737.312	201.361
737.440	198.186
737.568	202.536
737.696	200.237
737.824	197.082
737.952	196.474
738.080	199.216
738.208	200.206
738.337	194.979
738.465	194.639
738.593	190.340
738.721	193.412
738.849	195.000
738.977	195.784
739.105	192.866
739.233	188.753
739.362	193.289
739.490	190.670
739.618	191.340
739.746	191.784
739.874	189.814
740.002	192.134
740.130	186.186
740.258	186.763
740.387	190.268
740.515	185.546
740.643	190.526
740.771	187.052
740.899	187.907
741.027	184.505
741.155	186.165
741.283	187.216
741.412	184.186
741.540	185.340
741.668	185.577
741.796	185.887
741.924	185.804
742.052	183.649
742.180	180.216
742.308	182.495
742.437	186.887
742.565	178.134
742.693	182.814
742.821	180.196
742.949	181.918
743.077	181.299
743.205	181.866
743.333	179.485
743.462	179.526
743.590	178.887
743.718	181.670
743.846	178.536
743.974	179.381
744.102	175.711
744.230	179.464
744.358	174.732
744.487	177.928
744.615	175.722
744.743	175.742
744.871	175.268
744.999	175.649
745.127	174.330
745.255	173.670
745.383	174.598
745.512	173.567
745.640	172.021
745.768	172.124
745.896	170.619
746.024	175.588
746.152	173.948
746.280	171.567
746.408	169.175
746.537	171.196
746.665	175.969
746.793	169.093
746.921	175.412
747.049	172.103
747.177	171.175
747.305	170.186
747.433	170.010
747.562	171.969
747.690	168.320
747.818	167.371
747.946	170.763
748.074	168.412
748.202	167.897
748.330	165.485
748.458	170.887
748.587	166.330
748.715	165.732
748.843	166.660
748.971	169.052
749.099	168.423
749.227	164.897
749.355	165.186
749.483	163.691
749.612	161.990
749.740	163.536
749.868	165.660
749.996	163.835
750.124	162.227
750.252	162.608
750.380	160.907
750.508	162.423
750.637	161.495
750.765	163.773
750.893	162.443
751.021	160.144
751.149	161.876
751.277	159.474
751.405	160.784
751.533	160.649
751.662	162.938
751.790	159.258
751.918	162.124
752.046	158.784
752.174	158.330
752.302	159.320
752.430	160.103
752.558	159.186
752.687	154.464
752.815	160.918
752.943	155.134
753.071	156.660
753.199	158.289
753.327	154.649
753.455	154.299
753.583	153.753
753.712	157.062
753.840	153.598
753.968	155.753
754.096	154.000
754.224	155.505
754.352	150.938
754.480	151.402
754.608	152.557
754.737	153.320
754.865	153.773
754.993	154.639
755.121	151.320
755.249	150.021
755.377	150.186
755.505	151.247
755.633	152.897
755.762	148.351
755.890	152.144
756.018	148.722
756.146	150.299
756.274	149.938
756.402	147.742
756.530	147.289
756.658	149.742
756.787	145.938
756.915	144.680
757.043	145.412
757.171	147.567
757.299	145.588
757.427	144.907
757.555	145.732
757.683	147.361
757.812	144.155
757.940	145.412
758.068	144.742
758.196	146.814
758.324	142.887
758.452	145.866
758.580	141.340
758.708	146.010
758.837	143.371
758.965	142.206
759.093	141.021
759.221	145.701
759.349	142.969
759.477	144.371
759.605	140.876
759.733	142.536
759.862	143.990
759.990	139.402
760.118	142.072
760.246	139.629
760.374	140.299
760.502	138.804
760.630	139.598
760.758	139.722
760.887	139.000
761.015	137.804
761.143	139.082
761.271	138.485
761.399	140.515
761.527	139.598
761.655	138.567
761.783	139.485
761.912	140.361
762.040	138.763
762.168	137.505
762.296	135.608
762.424	137.000
762.552	137.237
762.680	135.969
762.808	136.835
762.937	134.474
763.065	136.845
763.193	136.062
763.321	136.227
763.449	133.113
763.577	131.691
763.705	134.258
763.833	136.691
763.962	134.103
764.090	134.062
764.218	135.588
764.346	131.289
764.474	133.113
764.602	134.402
764.730	132.423
764.858	133.268
764.987	134.330
765.115	133.546
765.243	130.959
765.371	131.804
765.499	130.897
765.627	131.289
765.755	131.753
765.883	130.753
766.012	131.052
766.140	130.124
766.268	132.742
766.396	131.485
766.524	130.299
766.652	129.041
766.780	128.103
766.908	129.680
767.037	129.784
767.165	129.237
767.293	129.371
767.421	129.784
767.549	129.330
767.677	128.371
767.805	131.186
767.933	127.680
768.062	129.794
768.190	127.351
768.318	129.392
768.446	128.897
768.574	127.670
768.702	127.392
768.830	127.351
768.958	125.598
769.087	129.175
769.215	131.072
769.343	127.763
769.471	127.134
769.599	128.804
769.727	129.722
769.855	126.278
769.983	123.289
770.112	126.371
770.240	125.608
770.368	122.928
770.496	126.732
770.624	125.505
770.752	128.144
770.880	126.629
771.008	125.021
771.137	126.753
771.265	124.969
771.393	124.433
771.521	122.990
771.649	125.299
771.777	124.557
771.905	126.144
772.033	126.093
772.162	125.990
772.290	124.670
772.418	123.041
772.546	124.814
772.674	125.247
772.802	123.990
772.930	122.165
773.058	124.268
773.187	123.454
773.315	122.392
773.443	121.082
773.571	122.948
773.699	121.381
773.827	122.361
773.955	122.536
774.083	123.454
774.212	121.536
774.340	123.340
774.468	121.072
774.596	121.320
774.724	124.021
774.852	121.340
774.980	118.938
775.108	119.691
775.237	119.309
775.365	119.093
775.493	122.052
775.621	120.258
775.749	119.990
775.877	121.979
776.005	122.103
776.133	120.773
776.262	121.351
776.390	117.474
776.518	119.680
776.646	119.474
776.774	117.814
776.902	121.010
777.030	119.320
777.158	118.969
777.287	119.330
777.415	119.742
777.543	117.742
777.671	119.546
777.799	117.536
777.927	119.660
778.055	115.897
778.183	120.546
778.312	118.330
778.440	116.876
778.568	116.753
778.696	118.588
778.824	119.330
778.952	117.897
779.080	117.660
779.208	118.320
779.337	115.979
779.465	116.598
779.593	117.340
779.721	118.155
779.849	116.701
779.977	116.330
780.105	116.155
780.233	116.825
780.362	116.753
780.490	117.093
780.618	115.794
780.746	115.691
780.874	114.474
781.002	115.258
781.130	115.979
781.258	113.619
781.387	115.742
781.515	114.309
781.643	113.227
781.771	115.165
781.899	115.289
782.027	113.247
782.155	114.124
782.283	113.010
782.412	114.000
782.540	116.227
782.668	113.588
782.796	112.258
782.924	115.227
783.052	113.371
783.180	113.433
783.308	113.021
783.437	113.825
783.565	114.670
783.693	113.320
783.821	115.711
783.949	114.289
784.077	113.763
784.205	114.165
784.333	114.216
784.462	114.165
784.590	115.412
784.718	113.598
784.846	112.577
784.974	113.536
785.102	113.763
785.230	113.196
785.358	112.660
785.487	111.340
785.615	112.526
785.743	111.000
785.871	111.835
785.999	113.948
786.127	112.361
786.255	111.753
786.383	111.722
786.512	112.072
786.640	111.072
786.768	112.124
786.896	111.660
787.024	111.175
787.152	110.309
787.280	111.361
787.408	112.227
787.537	111.351
787.665	111.206
787.793	110.722
787.921	112.773
788.049	112.247
788.177	110.691
788.305	110.299
788.433	111.742
788.562	110.887
788.690	109.887
788.818	109.887
788.946	109.258
789.074	109.464
789.202	109.722
789.330	110.691
789.458	112.577
789.587	110.052
789.715	109.629
789.843	109.485
789.971	109.680
790.099	109.557
790.227	108.031
790.355	108.433
790.483	109.134
790.612	109.794
790.740	110.206
790.868	111.216
790.996	110.722
791.124	109.247
791.252	108.155
791.380	108.722
791.508	107.206
791.637	109.258
791.765	108.371
791.893	108.371
792.021	108.701
792.149	107.835
792.277	107.598
792.405	110.649
792.533	109.371
792.662	108.093
792.790	108.309
792.918	110.608
793.046	109.144
793.174	107.814
793.302	108.515
793.430	109.598
793.558	108.701
793.687	108.763
793.815	108.732
793.943	106.814
794.071	106.701
794.199	107.670
794.327	107.515
794.455	107.021
794.583	106.000
794.712	108.608
794.840	106.505
794.968	106.392
795.096	106.216
795.224	108.701
795.352	108.309
795.480	107.330
795.608	108.629
795.737	109.412
795.865	107.031
795.993	105.423
796.121	107.649
796.249	107.649
796.377	105.660
796.505	106.103
796.633	107.093
796.762	106.866
796.890	108.361
797.018	108.124
797.146	105.876
797.274	104.887
797.402	105.887
797.530	106.928
797.658	107.113
797.787	107.402
797.915	107.897
798.043	106.928
798.171	107.093
798.299	105.000
798.427	106.186
798.555	104.753
798.683	106.629
798.812	105.526
798.940	106.443
799.068	106.412
799.196	105.928
799.324	105.495
799.452	105.928
799.580	105.299
799.708	105.990
799.837	106.546
799.965	106.320
800.093	106.103
800.221	106.021
800.349	107.196
800.477	106.216
800.605	104.299
800.733	104.835
800.862	105.186
800.990	105.361
801.118	104.247
801.246	104.402
801.374	105.227
801.502	104.784
801.630	105.784
801.758	104.990
801.887	103.660
802.015	104.773
802.143	105.165
802.271	104.454
802.399	105.175
802.527	104.948
802.655	105.835
802.783	103.948
802.912	104.990
803.040	105.268
803.168	104.887
803.296	105.175
803.424	103.711
803.552	104.124
803.680	104.443
803.808	103.887
803.937	102.423
804.065	104.041
804.193	103.237
804.321	104.402
804.449	103.670
804.577	102.258
804.705	103.031
804.833	103.175
804.962	102.485
805.090	102.629
805.218	103.897
805.346	104.608
805.474	104.433
805.602	103.546
805.730	102.268
805.858	103.278
805.987	103.402
806.115	104.485
806.243	104.402
806.371	103.381
806.499	103.546
806.627	102.804
806.755	102.876
806.883	104.402
807.012	103.928
807.140	103.165
807.268	102.660
807.396	103.835
807.524	103.608
807.652	101.948
807.780	102.361
807.908	103.278
808.037	102.825
808.165	102.103
808.293	103.082
808.421	102.041
808.549	102.907
808.677	102.495
808.805	102.041
808.933	102.825
809.062	103.557
809.190	102.629
809.318	103.969
809.446	102.567
809.574	102.402
809.702	102.402
809.830	101.649
809.958	102.505
810.087	102.825
810.215	102.876
810.343	103.567
810.471	103.763
810.599	103.619
810.727	103.454
810.855	100.660
810.983	102.113
811.112	103.268
811.240	101.124
811.368	101.866
811.496	103.794
811.624	101.711
811.752	102.598
811.880	100.629
812.008	101.598
812.137	101.773
812.265	100.897
812.393	101.856
812.521	101.247
812.649	102.392
812.777	101.000
812.905	100.680
813.033	101.134
813.162	101.454
813.290	102.041
813.418	101.876
813.546	100.835
813.674	102.216
813.802	101.546
813.930	101.814
814.058	101.247
814.187	102.588
814.315	101.505
814.443	101.526
814.571	100.247
814.699	101.031
814.827	102.206
814.955	101.412
815.083	101.639
815.212	101.412
815.340	100.897
815.468	100.237
815.596	100.577
815.724	101.495
815.852	101.990
815.980	101.701
816.108	101.495
816.237	101.144
816.365	101.814
816.493	99.876
816.621	101.155
816.749	101.546
816.877	100.423
817.005	102.103
817.133	100.959
817.262	101.309
817.390	103.247
817.518	101.990
817.646	100.515
817.774	100.454
817.902	101.608
818.030	100.526
818.158	101.268
818.287	99.979
818.415	100.268
818.543	99.814
818.671	100.598
818.799	101.649
818.927	100.351
819.055	100.247
819.183	101.526
819.312	100.608
819.440	100.093
819.568	100.660
819.696	100.577
819.824	101.423
819.952	99.474
820.080	99.464
820.208	99.753
820.337	101.969
820.465	100.340
820.593	99.598
820.721	101.227
820.849	99.649
820.977	100.052
821.105	101.722
821.233	100.515
821.362	100.856
821.490	101.608
821.618	100.278
821.746	99.505
821.874	98.866
822.002	99.784
822.130	100.454
822.258	100.474
822.387	99.371
822.515	100.680
822.643	98.948
822.771	99.082
822.899	100.330
823.027	99.969
823.155	99.299
823.283	99.979
823.412	102.309
823.540	100.691
823.668	100.423
823.796	99.351
823.924	100.309
824.052	98.639
824.180	98.711
824.308	99.959
824.437	99.155
824.565	99.062
824.693	99.835
824.821	101.495
824.949	100.062
825.077	99.351
825.205	98.577
825.333	99.206
825.462	99.990
825.590	100.093
825.718	98.268
825.846	99.619
825.974	100.000
826.102	98.969
826.230	99.000
826.358	98.907
826.487	99.165
826.615	97.052
826.743	99.763
826.871	99.278
826.999	100.526
827.127	100.990
827.255	99.031
827.383	100.010
827.512	98.412
827.640	99.711
827.768	99.825
827.896	99.433
828.024	99.062
828.152	99.000
828.280	99.588
828.408	99.938
828.537	99.237
828.665	99.742
828.793	99.515
828.921	99.082
829.049	98.804
829.177	98.711
829.305	99.784
829.433	98.660
829.562	98.196
829.690	100.320
829.818	98.619
829.946	97.711
830.074	99.082
830.202	99.907
830.330	99.454
830.458	99.485
830.587	99.732
830.715	99.660
830.843	98.701
830.971	100.000
831.099	99.196
831.227	99.485
831.355	98.691
831.483	100.052
831.612	98.948
831.740	99.845
831.868	99.495
831.996	98.835
832.124	100.072
832.252	98.165
832.380	98.546
832.508	99.536
832.637	99.206
832.765	101.227
832.893	99.804
833.021	99.959
833.149	99.237
833.277	99.990
833.405	100.701
833.533	98.144
833.662	99.814
833.790	97.732
833.918	98.835
834.046	99.021
834.174	101.000
834.302	99.093
834.430	99.474
834.558	98.969
834.687	99.423
834.815	99.309
834.943	98.474
835.071	98.835
835.199	99.351
835.327	99.124
835.455	99.711
835.583	100.402
835.712	99.258
835.840	99.928
835.968	98.722
836.096	98.794
836.224	99.258
836.352	100.433
836.480	100.722
836.608	98.691
836.737	99.289
836.865	98.804
836.993	98.268
837.121	99.247
837.249	99.474
837.377	100.567
837.505	98.268
837.633	98.701
837.762	97.351
837.890	98.557
838.018	97.763
838.146	99.608
838.274	98.062
838.402	99.464
838.530	98.742
838.658	97.206
838.787	97.814
838.915	98.340
839.043	99.557
839.171	98.763
839.299	99.526
839.427	99.103
839.555	99.196
839.683	100.175
839.812	98.897
839.940	98.866
840.068	99.309
840.196	99.309
840.324	98.031
840.452	98.340
840.580	98.340
840.708	98.320
840.837	98.227
840.965	99.113
841.093	100.423
841.221	100.526
841.349	100.464
841.477	99.433
841.605	98.938
841.733	97.711
841.862	99.763
841.990	98.546
842.118	99.196
842.246	98.052
842.374	98.031
842.502	99.052
842.630	97.258
842.758	98.103
842.887	97.948
843.015	98.392
843.143	98.423
843.271	99.165
843.399	98.196
843.527	98.814
843.655	98.289
843.783	98.670
843.912	98.052
844.040	99.845
844.168	99.938
844.296	100.072
844.424	99.732
844.552	98.680
844.680	97.990
844.808	99.381
844.937	99.165
845.065	98.588
845.193	99.742
845.321	98.814
845.449	98.814
845.577	99.711
845.705	98.041
845.833	99.732
845.962	98.887
846.090	97.948
846.218	98.443
846.346	98.938
846.474	96.835
846.602	97.495
846.730	98.598
846.858	98.495
846.987	98.423
847.115	99.340
847.243	98.753
847.371	98.742
847.499	97.701
847.627	98.464
847.755	98.742
847.883	98.103
848.012	98.732
848.140	99.103
848.268	98.856
848.396	98.866
848.524	99.701
848.652	99.495
848.780	97.577
848.908	99.845
849.037	98.423
849.165	99.392
849.293	97.227
849.421	97.557
849.549	97.918
849.677	97.691
849.805	99.485
849.933	98.794
850.062	99.247
850.190	97.536
850.318	97.443
850.446	98.784
850.574	97.227
850.702	99.546
850.830	98.247
850.958	98.237
851.087	99.742
851.215	98.928
851.343	97.753
851.471	98.258
851.599	98.680
851.727	98.278
851.855	98.897
851.983	98.423
852.112	99.660
852.240	98.268
852.368	98.649
852.496	98.010
852.624	97.052
852.752	97.289
852.880	98.639
853.008	97.423
853.137	100.010
853.265	98.701
853.393	98.794
853.521	98.629
853.649	98.289
853.777	98.351
853.905	99.021
854.033	97.299
854.162	99.381
854.290	98.536
854.418	96.907
854.546	95.763
854.674	98.144
854.802	96.990
854.930	97.773
855.058	97.876
855.187	99.670
855.315	98.938
855.443	99.835
855.571	99.237
855.699	99.536
855.827	98.557
855.955	98.268
856.083	98.588
856.212	99.680
856.340	99.237
856.468	98.639
856.596	99.134
856.724	97.804
856.852	99.454
856.980	97.577
857.108	98.196
857.237	97.856
857.365	97.227
857.493	98.938
857.621	98.505
857.749	98.371
857.877	97.546
858.005	99.763
858.133	96.938
858.262	98.196
858.390	98.928
858.518	97.412
858.646	97.773
858.774	99.289
858.902	98.340
859.030	98.381
859.158	97.464
859.287	97.804
859.415	97.732
859.543	97.969
859.671	98.371
859.799	97.887
859.927	99.371
860.055	98.990
860.183	98.134
860.312	98.021
860.440	97.680
860.568	98.928
860.696	98.763
860.824	98.773
860.952	97.485
861.080	98.340
861.208	98.021
861.337	97.216
861.465	97.155
861.593	98.784
861.721	98.711
861.849	97.887
861.977	98.392
862.105	99.103
862.233	98.309
862.362	99.124
862.490	98.784
862.618	99.196
862.746	98.340
862.874	99.443
863.002	98.340
863.130	98.918
863.258	99.454
863.387	98.474
863.515	99.134
863.643	98.021
863.771	98.454
863.899	99.608
864.027	99.371
864.155	98.660
864.283	98.010
864.412	99.144
864.540	99.536
864.668	98.052
864.796	99.093
864.924	98.918
865.052	98.526
865.180	98.784
865.308	98.021
865.437	97.299
865.565	97.928
865.693	98.041
865.821	97.546
865.949	98.577
866.077	99.680
866.205	98.031
866.333	98.247
866.462	97.722
866.590	98.485
866.718	99.134
866.846	99.423
866.974	98.701
867.102	98.000
867.230	97.536
867.358	97.546
867.487	99.371
867.615	97.959
867.743	99.856
867.871	99.897
867.999	99.237
868.127	97.753
868.255	99.691
868.383	99.072
868.512	100.155
868.640	98.866
868.768	98.526
868.896	97.938
869.024	98.258
869.152	98.186
869.280	98.887
869.408	99.732
869.537	98.814
869.665	99.320
869.793	98.175
869.921	98.485
870.049	99.639
870.177	99.268
870.305	99.732
870.433	100.093
870.562	98.588
870.690	99.278
870.818	98.485
870.946	98.742
871.074	98.526
871.202	98.722
871.330	99.412
871.458	99.371
871.587	99.330
871.715	97.041
871.843	98.216
871.971	98.784
872.099	96.722
872.227	98.577
872.355	98.495
872.483	98.598
872.612	98.412
872.740	98.278
872.868	98.433
872.996	96.722
873.124	99.309
873.252	99.897
873.380	98.392
873.508	99.247
873.637	99.557
873.765	98.619
873.893	99.041
874.021	99.773
874.149	99.588
874.277	99.062
874.405	98.546
874.533	99.938
874.662	98.691
874.790	98.340
874.918	99.330
875.046	97.711
875.174	98.155
875.302	99.938
875.430	99.722
875.558	97.691
875.687	98.670
875.815	99.113
875.943	97.990
876.071	100.526
876.199	100.526
876.327	99.845
876.455	99.866
876.583	99.876
876.712	98.722
876.840	98.113
876.968	99.402
877.096	99.753
877.224	100.206
877.352	97.948
877.480	97.990
877.608	99.227
877.737	99.165
877.865	98.660
877.993	98.299
878.121	98.928
878.249	99.773
878.377	98.567
878.505	97.536
878.633	98.814
878.762	99.464
878.890	99.031
879.018	99.103
879.146	97.856
879.274	99.196
879.402	98.825
879.530	98.103
879.658	98.536
879.787	97.443
879.915	98.918
880.043	99.639
880.171	99.361
880.299	98.804
880.427	99.639
880.555	98.557
880.683	100.423
880.812	99.113
880.940	98.206
881.068	99.165
881.196	98.804
881.324	99.392
881.452	99.804
881.580	98.443
881.708	98.186
881.837	100.165
881.965	99.041
882.093	98.918
882.221	98.938
882.349	97.649
882.477	99.402
882.605	99.887
882.733	97.825
882.862	99.567
882.990	99.227
883.118	98.454
883.246	98.526
883.374	99.134
883.502	98.082
883.630	100.629
883.758	100.124
883.887	100.010
884.015	100.000
884.143	99.495
884.271	100.144
884.399	97.680
884.527	98.773
884.655	99.351
884.783	99.825
884.912	99.124
885.040	98.309
885.168	98.464
885.296	99.320
885.424	98.402
885.552	99.784
885.680	98.278
885.808	99.134
885.937	101.258
886.065	99.278
886.193	99.505
886.321	98.804
886.449	99.402
886.577	99.495
886.705	98.742
886.833	99.031
886.962	99.258
887.090	99.010
887.218	99.278
887.346	98.216
887.474	99.474
887.602	98.876
887.730	98.598
887.858	98.639
887.987	97.990
888.115	98.794
888.243	101.186
888.371	99.237
888.499	99.763
888.627	97.722
888.755	98.948
888.883	100.330
889.012	99.237
889.140	98.773
889.268	98.309
889.396	98.856
889.524	99.454
889.652	98.763
889.780	98.856
889.908	98.392
890.037	99.371
890.165	98.495
890.293	98.990
890.421	100.082
890.549	99.227
890.677	98.907
890.805	99.454
890.933	99.392
891.062	99.412
891.190	99.351
891.318	100.691
891.446	99.814
891.574	99.598
891.702	98.155
891.830	98.856
891.958	98.825
892.087	100.299
892.215	99.887
892.343	100.505
892.471	100.000
892.599	100.299
892.727	101.021
892.855	99.278
892.983	99.804
893.112	100.330
893.240	100.144
893.368	99.742
893.496	99.856
893.624	100.299
893.752	100.732
893.880	98.206
894.008	100.649
894.137	100.557
894.265	100.278
894.393	99.557
894.521	99.330
894.649	99.412
894.777	99.794
894.905	99.124
895.033	101.804
895.162	100.588
895.290	99.887
895.418	100.351
895.546	99.938
895.674	98.237
895.802	98.340
895.930	99.165
896.058	98.814
896.187	100.649
896.315	101.845
896.443	99.268
896.571	100.206
896.699	100.948
896.827	99.969
896.955	99.464
897.083	100.495
897.212	101.082
897.340	99.340
897.468	98.742
897.596	98.918
897.724	98.536
897.852	99.742
897.980	98.990
898.108	99.206
898.237	98.680
898.365	99.474
898.493	100.278
898.621	99.588
898.749	99.423
898.877	99.959
899.005	99.948
899.133	99.825
899.262	99.227
899.390	99.216
899.518	100.103
899.646	99.186
899.774	98.392
899.902	99.866
900.030	100.907
900.158	100.454
900.287	100.144
900.415	99.515
900.543	100.072
900.671	100.526
900.799	99.680
900.927	100.010
901.055	100.258
901.183	99.680
901.312	100.845
901.440	100.722
901.568	100.928
901.696	100.928
901.824	99.742
901.952	100.598
902.080	99.330
902.208	100.124
902.337	100.536
902.465	100.742
902.593	101.113
902.721	100.928
902.849	100.825
902.977	99.845
903.105	101.309
903.233	101.031
903.362	100.773
903.490	98.608
903.618	98.835
903.746	99.691
903.874	100.588
904.002	101.186
904.130	100.577
904.258	100.268
904.387	99.660
904.515	100.289
904.643	100.588
904.771	101.598
904.899	100.515
905.027	99.639
905.155	98.309
905.283	100.845
905.412	100.186
905.540	99.856
905.668	99.371
905.796	98.474
905.924	100.268
906.052	101.505
906.180	101.062
906.308	99.299
906.437	99.175
906.565	100.876
906.693	99.711
906.821	97.680
906.949	99.216
907.077	99.062
907.205	101.155
907.333	99.938
907.462	100.567
907.590	100.557
907.718	99.010
907.846	100.732
907.974	101.876
908.102	100.784
908.230	99.959
908.358	99.464
908.487	99.742
908.615	100.402
908.743	100.165
908.871	102.165
908.999	100.124
909.127	99.804
909.255	100.134
909.383	98.753
909.512	101.649
909.640	100.732
909.768	101.876
909.896	101.196
910.024	100.670
910.152	101.268
910.280	100.474
910.408	101.660
910.537	102.165
910.665	100.660
910.793	101.124
910.921	100.835
911.049	100.876
911.177	100.052
911.305	100.227
911.433	101.021
911.562	100.464
911.690	99.320
911.818	99.629
911.946	100.763
912.074	101.907
912.202	100.309
912.330	101.247
912.458	101.175
912.587	100.464
912.715	100.278
912.843	100.433
912.971	100.969
913.099	101.330
913.227	101.536
913.355	101.784
913.483	101.351
913.612	101.412
913.740	101.773
913.868	99.505
