sample1v_at_750.00nm_cut_at_1200.50Y_01.dat
19.06.2023
10:48:20
cut middle at Y: 1200.50
top cursor: 1249 down cursor: 1152 mean of: 97 lines , 2560 datapoints
wavelength(nm)	intensity[arb. units]
585.996	1331.969
586.124	1294.887
586.252	1278.454
586.380	1268.845
586.508	1270.402
586.637	1281.206
586.765	1286.567
586.893	1284.773
587.021	1298.196
587.149	1298.103
587.277	1293.866
587.405	1301.546
587.533	1286.371
587.662	1287.351
587.790	1289.433
587.918	1300.155
588.046	1293.567
588.174	1304.711
588.302	1303.175
588.430	1302.887
588.558	1312.814
588.687	1307.670
588.815	1309.000
588.943	1308.454
589.071	1305.433
589.199	1307.763
589.327	1315.660
589.455	1308.608
589.583	1321.206
589.712	1303.082
589.840	1319.062
589.968	1303.753
590.096	1309.526
590.224	1311.309
590.352	1325.175
590.480	1318.918
590.608	1315.433
590.737	1309.711
590.865	1319.454
590.993	1320.835
591.121	1317.990
591.249	1314.804
591.377	1328.000
591.505	1328.701
591.633	1321.412
591.762	1317.969
591.890	1324.732
592.018	1324.000
592.146	1318.567
592.274	1316.010
592.402	1321.072
592.530	1347.825
592.658	1331.021
592.787	1336.082
592.915	1349.402
593.043	1346.701
593.171	1340.289
593.299	1346.155
593.427	1355.505
593.555	1346.660
593.683	1350.371
593.812	1367.216
593.940	1371.258
594.068	1364.835
594.196	1379.371
594.324	1373.464
594.452	1375.010
594.580	1381.000
594.708	1385.144
594.837	1379.876
594.965	1403.639
595.093	1395.536
595.221	1410.629
595.349	1406.866
595.477	1416.515
595.605	1424.619
595.733	1428.371
595.862	1441.464
595.990	1422.866
596.118	1428.887
596.246	1438.928
596.374	1432.907
596.502	1446.227
596.630	1468.804
596.758	1436.082
596.887	1443.701
597.015	1442.907
597.143	1453.124
597.271	1447.299
597.399	1468.763
597.527	1447.175
597.655	1448.835
597.783	1448.196
597.912	1455.443
598.040	1467.804
598.168	1460.495
598.296	1465.155
598.424	1453.134
598.552	1467.052
598.680	1454.845
598.808	1457.804
598.937	1458.103
599.065	1470.639
599.193	1464.464
599.321	1457.866
599.449	1461.887
599.577	1462.691
599.705	1457.361
599.833	1464.825
599.962	1460.381
600.090	1458.247
600.218	1477.402
600.346	1462.619
600.474	1469.505
600.602	1472.309
600.730	1479.330
600.858	1481.845
600.987	1486.784
601.115	1472.381
601.243	1489.577
601.371	1487.835
601.499	1487.165
601.627	1493.330
601.755	1497.649
601.883	1511.629
602.012	1508.567
602.140	1515.113
602.268	1511.804
602.396	1522.082
602.524	1528.062
602.652	1539.062
602.780	1568.309
602.908	1540.753
603.037	1559.722
603.165	1554.000
603.293	1561.320
603.421	1556.196
603.549	1567.041
603.677	1575.371
603.805	1585.536
603.933	1593.979
604.062	1601.938
604.190	1601.959
604.318	1622.567
604.446	1611.495
604.574	1623.691
604.702	1627.629
604.830	1628.691
604.958	1652.526
605.087	1651.660
605.215	1657.722
605.343	1663.773
605.471	1664.918
605.599	1683.691
605.727	1684.052
605.855	1686.041
605.983	1678.897
606.112	1696.825
606.240	1701.124
606.368	1691.804
606.496	1694.732
606.624	1709.289
606.752	1713.660
606.880	1706.649
607.008	1720.598
607.137	1716.773
607.265	1718.711
607.393	1737.082
607.521	1727.845
607.649	1729.577
607.777	1742.258
607.905	1748.938
608.033	1733.948
608.162	1729.804
608.290	1750.814
608.418	1763.103
608.546	1737.856
608.674	1752.216
608.802	1763.371
608.930	1755.897
609.058	1755.897
609.187	1761.959
609.315	1749.794
609.443	1762.526
609.571	1766.052
609.699	1756.814
609.827	1773.722
609.955	1768.577
610.083	1747.103
610.212	1770.392
610.340	1770.289
610.468	1793.196
610.596	1777.062
610.724	1753.041
610.852	1775.969
610.980	1782.928
611.108	1799.495
611.237	1787.361
611.365	1775.918
611.493	1790.124
611.621	1784.000
611.749	1790.258
611.877	1800.639
612.005	1805.887
612.133	1814.134
612.262	1827.474
612.390	1830.072
612.518	1827.062
612.646	1842.247
612.774	1842.433
612.902	1837.351
613.030	1843.711
613.158	1854.371
613.287	1867.000
613.415	1860.526
613.543	1865.629
613.671	1901.979
613.799	1892.289
613.927	1875.330
614.055	1914.268
614.183	1915.536
614.312	1903.082
614.440	1918.144
614.568	1917.691
614.696	1946.124
614.824	1942.072
614.952	1950.093
615.080	1958.165
615.208	1950.443
615.337	1992.402
615.465	1947.206
615.593	1972.351
615.721	1977.804
615.849	2000.031
615.977	1993.031
616.105	1984.979
616.233	2013.979
616.362	2025.794
616.490	2021.804
616.618	2034.784
616.746	2048.866
616.874	2033.062
617.002	2038.732
617.130	2048.856
617.258	2047.041
617.387	2050.598
617.515	2076.082
617.643	2066.485
617.771	2083.113
617.899	2075.825
618.027	2069.784
618.155	2080.794
618.283	2073.031
618.412	2106.247
618.540	2109.495
618.668	2115.948
618.796	2103.474
618.924	2105.701
619.052	2114.454
619.180	2113.948
619.308	2122.577
619.437	2147.979
619.565	2124.258
619.693	2126.948
619.821	2148.474
619.949	2164.660
620.077	2151.495
620.205	2149.402
620.333	2145.165
620.462	2178.155
620.590	2177.062
620.718	2193.124
620.846	2172.639
620.974	2175.979
621.102	2179.938
621.230	2206.021
621.358	2188.814
621.487	2181.196
621.615	2191.577
621.743	2185.041
621.871	2188.309
621.999	2179.588
622.127	2209.588
622.255	2208.505
622.383	2191.031
622.512	2208.732
622.640	2197.144
622.768	2232.206
622.896	2206.299
623.024	2218.763
623.152	2220.474
623.280	2222.278
623.408	2234.062
623.537	2227.722
623.665	2227.196
623.793	2245.557
623.921	2248.835
624.049	2242.938
624.177	2233.928
624.305	2248.206
624.433	2235.381
624.562	2251.505
624.690	2266.247
624.818	2245.959
624.946	2268.124
625.074	2248.784
625.202	2271.763
625.330	2265.021
625.458	2284.742
625.587	2275.361
625.715	2292.938
625.843	2296.526
625.971	2274.093
626.099	2304.577
626.227	2291.351
626.355	2302.969
626.483	2294.959
626.612	2307.155
626.740	2325.505
626.868	2314.732
626.996	2306.938
627.124	2303.742
627.252	2331.639
627.380	2326.093
627.508	2319.330
627.637	2356.825
627.765	2322.062
627.893	2352.835
628.021	2344.588
628.149	2349.000
628.277	2362.918
628.405	2374.990
628.533	2365.196
628.662	2361.742
628.790	2403.134
628.918	2384.639
629.046	2390.546
629.174	2377.691
629.302	2402.433
629.430	2384.825
629.558	2414.536
629.687	2403.309
629.815	2423.443
629.943	2415.351
630.071	2438.299
630.199	2414.773
630.327	2446.010
630.455	2453.918
630.583	2443.619
630.712	2453.351
630.840	2461.959
630.968	2464.124
631.096	2463.732
631.224	2479.268
631.352	2506.526
631.480	2474.577
631.608	2535.732
631.737	2489.052
631.865	2537.093
631.993	2520.732
632.121	2546.753
632.249	2513.237
632.377	2514.165
632.505	2507.082
632.633	2518.320
632.762	2496.144
632.890	2522.485
633.018	2526.825
633.146	2523.392
633.274	2511.196
633.402	2550.031
633.530	2525.485
633.658	2528.711
633.787	2518.309
633.915	2519.567
634.043	2528.165
634.171	2556.392
634.299	2546.309
634.427	2537.474
634.555	2647.722
634.683	2550.794
634.812	2560.237
634.940	2544.938
635.068	2537.979
635.196	2554.990
635.324	2539.619
635.452	2553.134
635.580	2617.505
635.708	2540.856
635.837	2555.299
635.965	2551.485
636.093	2537.474
636.221	2563.320
636.349	2537.196
636.477	2538.701
636.605	2555.598
636.733	2526.979
636.862	2532.433
636.990	2546.268
637.118	2569.990
637.246	2539.289
637.374	2605.021
637.502	2539.175
637.630	2548.351
637.758	2544.608
637.887	2525.577
638.015	2604.041
638.143	2560.330
638.271	2532.206
638.399	2563.526
638.527	2519.268
638.655	2563.691
638.783	2554.072
638.912	2599.485
639.040	2553.361
639.168	2547.412
639.296	2531.206
639.424	2585.649
639.552	2552.876
639.680	2582.608
639.808	2552.526
639.937	2542.918
640.065	2540.959
640.193	2565.052
640.321	2583.794
640.449	2571.289
640.577	2533.546
640.705	2546.144
640.833	2569.175
640.962	2603.155
641.090	2548.887
641.218	2551.928
641.346	2601.598
641.474	2549.278
641.602	2560.948
641.730	2559.289
641.858	2556.680
641.987	2567.031
642.115	2667.485
642.243	2585.227
642.371	2670.041
642.499	2603.454
642.627	2628.639
642.755	2565.155
642.883	2590.072
643.012	2597.124
643.140	2630.619
643.268	2630.546
643.396	2587.567
643.524	2599.938
643.652	2677.546
643.780	2603.557
643.908	2579.485
644.037	2650.948
644.165	2661.433
644.293	2756.629
644.421	2588.608
644.549	2667.443
644.677	2676.144
644.805	2617.031
644.933	2605.670
645.062	2627.216
645.190	2727.186
645.318	2661.443
645.446	2611.979
645.574	2599.186
645.702	2647.753
645.830	2655.897
645.958	2621.711
646.087	2603.361
646.215	2605.216
646.343	2590.907
646.471	2718.629
646.599	2622.536
646.727	2598.876
646.855	2593.660
646.983	2582.784
647.112	2642.866
647.240	2596.041
647.368	2652.680
647.496	2588.557
647.624	2606.969
647.752	2599.237
647.880	2576.381
648.008	2607.505
648.137	2617.247
648.265	2580.742
648.393	2650.330
648.521	2571.320
648.649	2674.041
648.777	2631.103
648.905	2589.619
649.033	2648.144
649.162	2583.010
649.290	2565.794
649.418	2561.825
649.546	2678.619
649.674	2578.784
649.802	2562.392
649.930	2556.021
650.058	2531.711
650.187	2548.381
650.315	2534.701
650.443	2535.680
650.571	2536.557
650.699	2527.206
650.827	2520.526
650.955	2530.577
651.083	2548.928
651.212	2515.959
651.340	2530.588
651.468	2503.969
651.596	2524.649
651.724	2544.052
651.852	2495.835
651.980	2486.907
652.108	2499.381
652.237	2501.381
652.365	2473.711
652.493	2471.134
652.621	2463.186
652.749	2479.526
652.877	2472.454
653.005	2471.000
653.133	2465.536
653.262	2459.113
653.390	2462.031
653.518	2492.979
653.646	2448.299
653.774	2446.804
653.902	2465.196
654.030	2461.536
654.158	2428.186
654.287	2443.742
654.415	2414.454
654.543	2424.876
654.671	2408.433
654.799	2399.897
654.927	2405.959
655.055	2407.835
655.183	2405.423
655.312	2398.340
655.440	2383.928
655.568	2381.268
655.696	2412.711
655.824	2386.938
655.952	2387.753
656.080	2374.680
656.208	2370.278
656.337	2368.814
656.465	2386.835
656.593	2376.103
656.721	2373.072
656.849	2355.763
656.977	2343.433
657.105	2355.330
657.233	2318.753
657.362	2329.299
657.490	2334.289
657.618	2323.536
657.746	2340.454
657.874	2317.732
658.002	2303.433
658.130	2319.299
658.258	2301.990
658.387	2286.711
658.515	2280.392
658.643	2283.845
658.771	2306.454
658.899	2287.485
659.027	2265.804
659.155	2272.670
659.283	2260.773
659.412	2261.845
659.540	2268.619
659.668	2249.392
659.796	2234.928
659.924	2264.144
660.052	2269.175
660.180	2227.402
660.308	2232.835
660.437	2232.454
660.565	2215.928
660.693	2217.093
660.821	2216.680
660.949	2228.227
661.077	2195.711
661.205	2185.856
661.333	2209.732
661.462	2206.845
661.590	2186.309
661.718	2214.835
661.846	2196.423
661.974	2197.825
662.102	2186.175
662.230	2187.619
662.358	2180.546
662.487	2161.722
662.615	2160.505
662.743	2163.773
662.871	2153.381
662.999	2146.557
663.127	2160.072
663.255	2149.948
663.383	2153.505
663.512	2153.144
663.640	2136.361
663.768	2131.979
663.896	2126.804
664.024	2118.258
664.152	2101.010
664.280	2128.361
664.408	2098.433
664.537	2096.392
664.665	2106.155
664.793	2093.691
664.921	2085.619
665.049	2095.773
665.177	2081.784
665.305	2085.876
665.433	2087.773
665.562	2106.340
665.690	2065.237
665.818	2070.216
665.946	2064.505
666.074	2079.103
666.202	2066.124
666.330	2034.113
666.458	2137.103
666.587	2041.010
666.715	2056.485
666.843	2023.814
666.971	2038.320
667.099	2035.041
667.227	2034.629
667.355	2032.103
667.483	2041.361
667.612	2024.804
667.740	1999.247
667.868	1999.474
667.996	1999.351
668.124	2014.474
668.252	2007.959
668.380	1977.124
668.508	1991.887
668.637	1966.887
668.765	1990.464
668.893	1976.825
669.021	1969.598
669.149	1965.835
669.277	1965.928
669.405	1956.309
669.533	1961.918
669.662	1949.278
669.790	1946.124
669.918	1933.680
670.046	1942.237
670.174	1936.608
670.302	1911.082
670.430	1917.495
670.558	1902.557
670.687	1908.031
670.815	1887.371
670.943	1920.134
671.071	1885.340
671.199	1880.608
671.327	1865.918
671.455	1876.825
671.583	1868.351
671.712	1857.773
671.840	1847.485
671.968	1850.309
672.096	1835.433
672.224	1828.608
672.352	1813.567
672.480	1821.206
672.608	1802.021
672.737	1791.804
672.865	1805.031
672.993	1807.124
673.121	1780.144
673.249	1778.454
673.377	1770.691
673.505	1777.784
673.633	1764.505
673.762	1746.299
673.890	1756.835
674.018	1740.392
674.146	1736.670
674.274	1727.928
674.402	1710.227
674.530	1713.515
674.658	1700.876
674.787	1695.567
674.915	1681.536
675.043	1680.928
675.171	1681.278
675.299	1672.340
675.427	1671.485
675.555	1666.897
675.683	1649.340
675.812	1651.258
675.940	1642.567
676.068	1627.000
676.196	1635.196
676.324	1626.876
676.452	1613.371
676.580	1615.072
676.708	1616.113
676.837	1599.990
676.965	1600.588
677.093	1599.072
677.221	1584.918
677.349	1570.546
677.477	1584.495
677.605	1580.423
677.733	1565.722
677.862	1553.536
677.990	1540.979
678.118	1536.722
678.246	1531.649
678.374	1526.485
678.502	1525.918
678.630	1513.103
678.758	1518.361
678.887	1518.835
679.015	1500.268
679.143	1496.093
679.271	1500.227
679.399	1485.701
679.527	1482.948
679.655	1481.010
679.783	1474.825
679.912	1464.258
680.040	1465.928
680.168	1469.443
680.296	1457.144
680.424	1458.680
680.552	1464.381
680.680	1453.639
680.808	1440.175
680.937	1429.247
681.065	1422.588
681.193	1423.031
681.321	1417.041
681.449	1421.577
681.577	1415.887
681.705	1398.340
681.833	1414.660
681.962	1400.990
682.090	1388.381
682.218	1385.258
682.346	1395.485
682.474	1381.103
682.602	1378.763
682.730	1372.907
682.858	1381.897
682.987	1374.711
683.115	1361.763
683.243	1376.928
683.371	1374.247
683.499	1369.454
683.627	1351.969
683.755	1353.320
683.883	1353.072
684.012	1348.526
684.140	1337.814
684.268	1332.454
684.396	1344.021
684.524	1325.887
684.652	1345.722
684.780	1321.969
684.908	1338.649
685.037	1317.010
685.165	1321.495
685.293	1325.505
685.421	1300.876
685.549	1295.649
685.677	1315.866
685.805	1307.423
685.933	1307.773
686.062	1310.474
686.190	1295.619
686.318	1288.124
686.446	1283.268
686.574	1282.948
686.702	1275.577
686.830	1286.351
686.958	1290.113
687.087	1291.041
687.215	1280.557
687.343	1261.546
687.471	1261.268
687.599	1263.680
687.727	1263.711
687.855	1242.567
687.983	1259.722
688.112	1244.825
688.240	1238.371
688.368	1245.804
688.496	1239.536
688.624	1243.814
688.752	1233.464
688.880	1221.897
689.008	1223.959
689.137	1220.021
689.265	1210.814
689.393	1205.247
689.521	1205.557
689.649	1219.742
689.777	1192.680
689.905	1201.670
690.033	1199.021
690.162	1185.907
690.290	1183.237
690.418	1182.000
690.546	1178.423
690.674	1184.907
690.802	1171.433
690.930	1162.021
691.058	1156.598
691.187	1155.557
691.315	1154.763
691.443	1151.124
691.571	1155.907
691.699	1139.557
691.827	1154.330
691.955	1138.454
692.083	1138.299
692.212	1119.361
692.340	1137.021
692.468	1124.258
692.596	1126.907
692.724	1121.474
692.852	1112.505
692.980	1113.794
693.108	1104.402
693.237	1092.464
693.365	1086.278
693.493	1101.742
693.621	1090.412
693.749	1083.495
693.877	1077.577
694.005	1067.278
694.133	1067.918
694.262	1054.701
694.390	1067.856
694.518	1063.423
694.646	1044.402
694.774	1045.175
694.902	1043.196
695.030	1034.639
695.158	1044.412
695.287	1024.278
695.415	1039.144
695.543	1018.289
695.671	1025.113
695.799	1024.680
695.927	1016.773
696.055	1008.144
696.183	1011.021
696.312	1005.969
696.440	996.732
696.568	1004.103
696.696	975.763
696.824	990.907
696.952	988.464
697.080	979.866
697.208	972.206
697.337	988.825
697.465	969.753
697.593	970.330
697.721	964.928
697.849	960.227
697.977	969.289
698.105	955.010
698.233	957.216
698.362	943.753
698.490	953.928
698.618	943.835
698.746	933.062
698.874	921.660
699.002	930.340
699.130	931.887
699.258	927.485
699.387	929.649
699.515	909.526
699.643	919.701
699.771	904.268
699.899	905.330
700.027	899.619
700.155	898.619
700.283	896.031
700.412	886.206
700.540	898.505
700.668	884.515
700.796	878.371
700.924	876.227
701.052	868.711
701.180	868.515
701.308	860.577
701.437	862.175
701.565	869.495
701.693	846.979
701.821	848.546
701.949	845.237
702.077	849.247
702.205	839.876
702.333	847.320
702.462	837.567
702.590	826.639
702.718	827.722
702.846	819.794
702.974	823.124
703.102	817.773
703.230	811.629
703.358	801.371
703.487	801.381
703.615	803.052
703.743	790.196
703.871	787.402
703.999	799.454
704.127	787.979
704.255	784.794
704.383	775.330
704.512	776.351
704.640	762.000
704.768	754.103
704.896	763.845
705.024	758.835
705.152	760.289
705.280	763.041
705.408	760.320
705.537	754.969
705.665	748.856
705.793	737.309
705.921	748.227
706.049	740.021
706.177	727.567
706.305	737.794
706.433	736.175
706.562	730.320
706.690	727.639
706.818	723.794
706.946	719.289
707.074	723.825
707.202	712.423
707.330	702.000
707.458	707.299
707.587	703.464
707.715	697.289
707.843	697.722
707.971	694.814
708.099	700.474
708.227	694.835
708.355	683.948
708.483	688.072
708.612	680.402
708.740	685.732
708.868	671.804
708.996	675.732
709.124	673.784
709.252	672.041
709.380	670.680
709.508	668.031
709.637	659.062
709.765	657.402
709.893	661.155
710.021	658.093
710.149	651.423
710.277	645.804
710.405	650.309
710.533	644.928
710.662	643.773
710.790	642.701
710.918	637.227
711.046	642.701
711.174	645.052
711.302	650.598
711.430	637.258
711.558	639.216
711.687	626.247
711.815	623.938
711.943	624.866
712.071	627.505
712.199	624.639
712.327	621.454
712.455	622.649
712.583	623.773
712.712	616.381
712.840	616.907
712.968	610.598
713.096	606.856
713.224	611.835
713.352	606.134
713.480	603.433
713.608	603.505
713.737	599.856
713.865	591.577
713.993	609.433
714.121	596.206
714.249	602.619
714.377	595.361
714.505	588.299
714.633	592.784
714.762	590.887
714.890	580.979
715.018	581.711
715.146	582.320
715.274	582.216
715.402	579.113
715.530	576.299
715.658	575.608
715.787	567.515
715.915	570.495
716.043	572.072
716.171	563.392
716.299	559.402
716.427	566.113
716.555	557.918
716.683	556.907
716.812	556.412
716.940	562.464
717.068	554.361
717.196	556.124
717.324	554.052
717.452	550.340
717.580	555.825
717.708	550.701
717.837	545.619
717.965	542.897
718.093	549.485
718.221	539.876
718.349	537.691
718.477	541.577
718.605	534.546
718.733	533.103
718.862	536.464
718.990	524.773
719.118	524.845
719.246	528.753
719.374	524.608
719.502	522.144
719.630	525.268
719.758	520.227
719.887	515.186
720.015	507.907
720.143	510.237
720.271	514.691
720.399	504.732
720.527	500.938
720.655	499.299
720.783	499.371
720.912	495.392
721.040	494.268
721.168	506.237
721.296	486.732
721.424	493.866
721.552	488.814
721.680	488.247
721.808	488.897
721.937	484.804
722.065	482.052
722.193	487.062
722.321	484.536
722.449	487.412
722.577	474.773
722.705	478.680
722.833	477.577
722.962	480.165
723.090	469.412
723.218	465.268
723.346	468.608
723.474	469.361
723.602	467.165
723.730	455.732
723.858	460.711
723.987	461.082
724.115	460.351
724.243	458.351
724.371	456.216
724.499	456.330
724.627	448.278
724.755	451.639
724.883	450.052
725.012	446.206
725.140	443.258
725.268	446.660
725.396	439.711
725.524	442.443
725.652	435.381
725.780	431.361
725.908	433.299
726.037	430.691
726.165	433.320
726.293	427.969
726.421	431.454
726.549	428.268
726.677	427.082
726.805	419.113
726.933	418.845
727.062	418.515
727.190	424.258
727.318	417.258
727.446	416.876
727.574	413.722
727.702	408.794
727.830	418.845
727.958	410.670
728.087	414.113
728.215	409.948
728.343	410.619
728.471	403.206
728.599	404.691
728.727	405.639
728.855	401.835
728.983	399.887
729.112	400.938
729.240	403.691
729.368	398.155
729.496	396.216
729.624	391.876
729.752	388.113
729.880	393.959
730.008	388.433
730.137	386.577
730.265	389.711
730.393	384.505
730.521	389.103
730.649	384.082
730.777	383.216
730.905	386.186
731.033	372.639
731.162	383.711
731.290	380.082
731.418	381.639
731.546	371.948
731.674	376.629
731.802	373.361
731.930	376.165
732.058	364.546
732.187	366.567
732.315	368.907
732.443	372.454
732.571	367.866
732.699	369.454
732.827	367.918
732.955	366.845
733.083	361.598
733.212	368.670
733.340	368.010
733.468	362.402
733.596	364.423
733.724	357.608
733.852	358.990
733.980	352.619
734.108	355.794
734.237	352.031
734.365	356.918
734.493	351.794
734.621	347.134
734.749	357.031
734.877	352.567
735.005	346.876
735.133	347.237
735.262	347.093
735.390	341.289
735.518	342.268
735.646	341.845
735.774	346.515
735.902	343.948
736.030	343.258
736.158	341.629
736.287	339.289
736.415	342.237
736.543	335.206
736.671	339.021
736.799	337.206
736.927	332.866
737.055	336.918
737.183	335.567
737.312	330.392
737.440	332.433
737.568	332.227
737.696	330.639
737.824	333.485
737.952	360.392
738.080	326.010
738.208	331.392
738.337	323.175
738.465	325.608
738.593	324.515
738.721	320.577
738.849	321.866
738.977	320.557
739.105	320.990
739.233	320.155
739.362	321.505
739.490	318.660
739.618	317.639
739.746	319.567
739.874	316.485
740.002	316.732
740.130	315.175
740.258	313.464
740.387	317.959
740.515	313.268
740.643	306.041
740.771	308.845
740.899	307.835
741.027	305.495
741.155	305.247
741.283	307.155
741.412	307.505
741.540	307.093
741.668	302.588
741.796	303.433
741.924	296.206
742.052	301.423
742.180	296.959
742.308	296.010
742.437	294.454
742.565	293.887
742.693	298.887
742.821	294.845
742.949	293.969
743.077	292.557
743.205	295.216
743.333	291.454
743.462	291.268
743.590	288.309
743.718	286.557
743.846	286.835
743.974	286.485
744.102	283.701
744.230	281.412
744.358	282.464
744.487	285.443
744.615	283.546
744.743	281.577
744.871	278.082
744.999	279.113
745.127	277.701
745.255	270.814
745.383	270.165
745.512	273.773
745.640	276.402
745.768	270.392
745.896	270.093
746.024	266.278
746.152	277.206
746.280	275.536
746.408	266.897
746.537	263.649
746.665	267.206
746.793	265.639
746.921	267.402
747.049	264.742
747.177	269.866
747.305	261.227
747.433	265.887
747.562	260.526
747.690	257.546
747.818	257.351
747.946	257.165
748.074	257.113
748.202	256.227
748.330	252.536
748.458	255.000
748.587	248.763
748.715	255.206
748.843	250.845
748.971	251.649
749.099	252.464
749.227	252.134
749.355	246.701
749.483	244.979
749.612	248.742
749.740	247.082
749.868	245.680
749.996	248.381
750.124	249.680
750.252	244.041
750.380	245.845
750.508	247.567
750.637	244.010
750.765	242.412
750.893	242.515
751.021	239.474
751.149	235.619
751.277	240.918
751.405	234.990
751.533	235.680
751.662	234.701
751.790	232.557
751.918	233.175
752.046	231.041
752.174	232.216
752.302	232.072
752.430	232.237
752.558	228.856
752.687	228.691
752.815	233.021
752.943	226.732
753.071	224.330
753.199	224.763
753.327	231.392
753.455	223.825
753.583	224.186
753.712	220.299
753.840	223.691
753.968	222.680
754.096	219.196
754.224	221.000
754.352	219.268
754.480	220.979
754.608	215.216
754.737	219.619
754.865	218.835
754.993	216.918
755.121	214.433
755.249	213.320
755.377	212.608
755.505	209.804
755.633	211.082
755.762	206.113
755.890	210.639
756.018	210.144
756.146	209.144
756.274	206.454
756.402	208.546
756.530	209.072
756.658	203.227
756.787	204.010
756.915	201.268
757.043	200.093
757.171	205.113
757.299	201.866
757.427	198.072
757.555	201.093
757.683	202.990
757.812	198.340
757.940	196.103
758.068	197.546
758.196	197.619
758.324	198.546
758.452	192.670
758.580	195.742
758.708	195.804
758.837	193.598
758.965	192.680
759.093	197.588
759.221	192.052
759.349	195.010
759.477	190.454
759.605	188.371
759.733	196.825
759.862	188.278
759.990	185.124
760.118	186.670
760.246	185.402
760.374	189.464
760.502	184.351
760.630	184.577
760.758	187.113
760.887	184.082
761.015	185.175
761.143	184.557
761.271	186.670
761.399	183.804
761.527	182.804
761.655	180.082
761.783	180.969
761.912	179.392
762.040	179.546
762.168	179.567
762.296	178.268
762.424	182.454
762.552	177.237
762.680	174.691
762.808	177.402
762.937	180.515
763.065	171.959
763.193	178.907
763.321	170.495
763.449	172.660
763.577	171.196
763.705	175.763
763.833	171.227
763.962	170.557
764.090	170.247
764.218	169.474
764.346	167.351
764.474	168.763
764.602	167.144
764.730	168.928
764.858	170.505
764.987	167.134
765.115	165.155
765.243	168.866
765.371	166.784
765.499	163.505
765.627	166.598
765.755	166.010
765.883	165.454
766.012	162.526
766.140	166.299
766.268	166.247
766.396	164.124
766.524	161.515
766.652	162.268
766.780	160.443
766.908	163.206
767.037	162.577
767.165	163.629
767.293	159.969
767.421	161.474
767.549	161.629
767.677	161.309
767.805	159.340
767.933	158.825
768.062	157.639
768.190	161.124
768.318	158.763
768.446	157.505
768.574	157.371
768.702	156.495
768.830	156.619
768.958	153.969
769.087	155.577
769.215	154.423
769.343	155.505
769.471	152.990
769.599	153.320
769.727	154.732
769.855	151.464
769.983	158.464
770.112	155.093
770.240	155.495
770.368	151.464
770.496	152.732
770.624	152.165
770.752	155.113
770.880	152.186
771.008	152.464
771.137	149.216
771.265	150.959
771.393	149.608
771.521	150.392
771.649	152.938
771.777	149.340
771.905	151.753
772.033	148.619
772.162	147.515
772.290	147.113
772.418	149.938
772.546	146.670
772.674	149.113
772.802	146.433
772.930	146.619
773.058	147.247
773.187	147.165
773.315	147.247
773.443	148.093
773.571	144.526
773.699	144.897
773.827	145.062
773.955	148.691
774.083	144.258
774.212	143.897
774.340	148.155
774.468	142.206
774.596	145.423
774.724	142.052
774.852	141.495
774.980	143.763
775.108	142.876
775.237	142.598
775.365	142.979
775.493	143.866
775.621	141.515
775.749	142.268
775.877	142.299
776.005	140.670
776.133	139.773
776.262	140.165
776.390	142.072
776.518	140.474
776.646	141.175
776.774	139.093
776.902	138.010
777.030	137.567
777.158	140.041
777.287	140.897
777.415	138.526
777.543	140.670
777.671	139.866
777.799	138.216
777.927	135.515
778.055	136.320
778.183	136.010
778.312	136.794
778.440	137.052
778.568	138.052
778.696	136.639
778.824	136.278
778.952	134.722
779.080	133.505
779.208	132.835
779.337	135.433
779.465	136.711
779.593	132.227
779.721	134.371
779.849	132.887
779.977	133.196
780.105	136.629
780.233	133.124
780.362	133.825
780.490	130.979
780.618	134.845
780.746	132.103
780.874	134.072
781.002	133.546
781.130	132.928
781.258	133.845
781.387	130.711
781.515	132.186
781.643	129.732
781.771	131.495
781.899	134.979
782.027	129.670
782.155	131.505
782.283	129.835
782.412	129.392
782.540	128.691
782.668	129.649
782.796	127.887
782.924	129.392
783.052	130.897
783.180	127.948
783.308	127.907
783.437	126.680
783.565	127.340
783.693	128.577
783.821	127.402
783.949	127.144
784.077	126.381
784.205	126.103
784.333	126.918
784.462	128.526
784.590	128.196
784.718	126.835
784.846	124.928
784.974	125.268
785.102	123.866
785.230	126.320
785.358	124.794
785.487	124.392
785.615	123.423
785.743	123.082
785.871	122.392
785.999	126.825
786.127	124.557
786.255	123.763
786.383	123.330
786.512	123.206
786.640	124.000
786.768	123.392
786.896	122.825
787.024	122.072
787.152	121.536
787.280	126.052
787.408	123.216
787.537	124.103
787.665	124.134
787.793	121.412
787.921	118.155
788.049	121.619
788.177	123.670
788.305	119.351
788.433	121.423
788.562	117.876
788.690	120.907
788.818	120.216
788.946	119.134
789.074	117.691
789.202	119.536
789.330	121.670
789.458	122.093
789.587	118.856
789.715	121.278
789.843	118.753
789.971	120.320
790.099	120.608
790.227	118.474
790.355	119.711
790.483	119.299
790.612	118.577
790.740	119.010
790.868	119.515
790.996	121.742
791.124	118.959
791.252	118.825
791.380	117.082
791.508	119.567
791.637	119.237
791.765	116.361
791.893	116.856
792.021	116.825
792.149	116.464
792.277	116.567
792.405	116.598
792.533	115.680
792.662	116.526
792.790	117.258
792.918	116.732
793.046	114.897
793.174	116.062
793.302	115.134
793.430	114.588
793.558	115.381
793.687	115.144
793.815	114.526
793.943	116.155
794.071	113.041
794.199	115.464
794.327	115.072
794.455	112.938
794.583	115.227
794.712	114.887
794.840	113.113
794.968	113.722
795.096	114.577
795.224	112.340
795.352	113.289
795.480	112.557
795.608	112.588
795.737	113.175
795.865	112.247
795.993	112.474
796.121	110.216
796.249	112.052
796.377	112.907
796.505	113.567
796.633	112.134
796.762	110.454
796.890	111.268
797.018	110.175
797.146	111.505
797.274	112.206
797.402	111.412
797.530	112.959
797.658	110.753
797.787	112.443
797.915	111.433
798.043	112.454
798.171	109.794
798.299	109.402
798.427	110.113
798.555	111.124
798.683	109.691
798.812	109.825
798.940	111.546
799.068	112.608
799.196	111.845
799.324	110.392
799.452	110.247
799.580	109.330
799.708	110.052
799.837	109.691
799.965	108.433
800.093	111.216
800.221	110.856
800.349	109.052
800.477	111.113
800.605	109.938
800.733	108.938
800.862	109.351
800.990	108.629
801.118	109.361
801.246	109.216
801.374	111.701
801.502	108.907
801.630	108.113
801.758	108.392
801.887	107.000
802.015	105.526
802.143	106.443
802.271	106.515
802.399	108.289
802.527	107.392
802.655	107.701
802.783	106.845
802.912	107.062
803.040	107.412
803.168	107.876
803.296	108.814
803.424	106.577
803.552	106.546
803.680	106.216
803.808	106.845
803.937	107.619
804.065	108.247
804.193	107.474
804.321	106.155
804.449	106.598
804.577	106.948
804.705	106.474
804.833	108.588
804.962	105.113
805.090	105.639
805.218	107.474
805.346	107.485
805.474	106.959
805.602	106.701
805.730	104.423
805.858	105.845
805.987	106.309
806.115	106.794
806.243	105.423
806.371	105.289
806.499	106.784
806.627	106.588
806.755	105.546
806.883	106.485
807.012	105.371
807.140	105.711
807.268	103.495
807.396	105.464
807.524	105.227
807.652	106.371
807.780	105.186
807.908	105.237
808.037	106.289
808.165	105.598
808.293	105.381
808.421	103.907
808.549	104.835
808.677	104.216
808.805	104.753
808.933	105.505
809.062	105.227
809.190	104.134
809.318	105.897
809.446	105.206
809.574	104.938
809.702	104.639
809.830	104.309
809.958	104.732
810.087	104.144
810.215	105.825
810.343	105.454
810.471	105.330
810.599	104.567
810.727	105.526
810.855	104.330
810.983	105.144
811.112	104.093
811.240	103.495
811.368	104.289
811.496	103.381
811.624	104.402
811.752	102.979
811.880	103.247
812.008	104.082
812.137	105.052
812.265	103.619
812.393	102.237
812.521	102.639
812.649	103.515
812.777	102.835
812.905	102.557
813.033	103.536
813.162	103.124
813.290	102.814
813.418	103.216
813.546	103.330
813.674	103.948
813.802	102.773
813.930	101.680
814.058	102.371
814.187	103.598
814.315	101.680
814.443	103.227
814.571	102.608
814.699	101.990
814.827	102.722
814.955	103.031
815.083	103.526
815.212	104.134
815.340	102.660
815.468	102.299
815.596	102.711
815.724	103.722
815.852	103.124
815.980	102.155
816.108	101.124
816.237	102.320
816.365	103.258
816.493	103.505
816.621	103.856
816.749	103.113
816.877	102.515
817.005	105.247
817.133	105.216
817.262	102.732
817.390	103.742
817.518	102.144
817.646	101.557
817.774	101.320
817.902	101.361
818.030	102.598
818.158	102.742
818.287	102.278
818.415	101.320
818.543	102.412
818.671	102.134
818.799	99.577
818.927	99.454
819.055	101.340
819.183	103.639
819.312	101.505
819.440	100.454
819.568	101.371
819.696	102.722
819.824	101.258
819.952	100.825
820.080	101.845
820.208	100.598
820.337	101.423
820.465	100.835
820.593	100.619
820.721	101.330
820.849	101.351
820.977	100.619
821.105	102.216
821.233	100.526
821.362	101.371
821.490	101.175
821.618	101.062
821.746	100.062
821.874	99.186
822.002	99.897
822.130	101.082
822.258	101.031
822.387	100.402
822.515	101.371
822.643	99.990
822.771	99.619
822.899	100.990
823.027	98.990
823.155	101.392
823.283	100.619
823.412	100.784
823.540	100.763
823.668	100.134
823.796	101.227
823.924	99.814
824.052	99.907
824.180	99.742
824.308	101.402
824.437	101.866
824.565	100.711
824.693	99.680
824.821	100.196
824.949	101.227
825.077	100.629
825.205	99.031
825.333	100.103
825.462	99.381
825.590	99.825
825.718	99.443
825.846	100.278
825.974	101.268
826.102	101.175
826.230	100.866
826.358	100.258
826.487	100.124
826.615	100.155
826.743	100.680
826.871	98.577
826.999	100.412
827.127	101.278
827.255	99.773
827.383	100.887
827.512	99.825
827.640	101.639
827.768	100.495
827.896	100.134
828.024	98.969
828.152	98.866
828.280	100.753
828.408	99.546
828.537	100.093
828.665	98.670
828.793	99.990
828.921	101.082
829.049	100.536
829.177	99.557
829.305	101.351
829.433	99.299
829.562	99.763
829.690	98.938
829.818	99.536
829.946	99.557
830.074	98.361
830.202	99.619
830.330	98.567
830.458	98.124
830.587	98.495
830.715	98.918
830.843	98.938
830.971	99.670
831.099	99.701
831.227	100.340
831.355	99.835
831.483	99.237
831.612	99.031
831.740	98.423
831.868	99.361
831.996	98.979
832.124	99.722
832.252	100.175
832.380	100.268
832.508	99.835
832.637	98.866
832.765	99.299
832.893	100.608
833.021	100.052
833.149	99.515
833.277	99.876
833.405	99.155
833.533	98.062
833.662	99.753
833.790	97.887
833.918	99.247
834.046	99.031
834.174	99.887
834.302	100.722
834.430	98.598
834.558	99.526
834.687	99.928
834.815	99.443
834.943	97.856
835.071	100.392
835.199	99.773
835.327	98.845
835.455	99.402
835.583	99.227
835.712	100.082
835.840	100.443
835.968	98.557
836.096	99.124
836.224	98.464
836.352	100.423
836.480	99.536
836.608	99.082
836.737	99.763
836.865	99.577
836.993	100.711
837.121	99.588
837.249	98.948
837.377	98.186
837.505	97.258
837.633	98.495
837.762	99.340
837.890	99.526
838.018	98.216
838.146	97.928
838.274	96.784
838.402	100.000
838.530	99.175
838.658	99.856
838.787	99.247
838.915	97.381
839.043	99.124
839.171	98.784
839.299	98.639
839.427	98.845
839.555	101.082
839.683	99.010
839.812	101.134
839.940	99.845
840.068	100.515
840.196	98.753
840.324	98.165
840.452	97.928
840.580	97.907
840.708	98.144
840.837	98.546
840.965	98.814
841.093	98.485
841.221	97.979
841.349	99.732
841.477	98.856
841.605	98.485
841.733	98.268
841.862	99.371
841.990	98.670
842.118	99.866
842.246	99.134
842.374	98.515
842.502	99.340
842.630	100.175
842.758	98.474
842.887	98.361
843.015	99.144
843.143	99.577
843.271	98.814
843.399	99.887
843.527	98.732
843.655	98.907
843.783	99.113
843.912	97.990
844.040	98.196
844.168	98.268
844.296	100.412
844.424	98.454
844.552	99.649
844.680	98.423
844.808	98.227
844.937	98.402
845.065	98.866
845.193	99.505
845.321	98.361
845.449	100.082
845.577	98.515
845.705	99.474
845.833	98.103
845.962	99.629
846.090	98.299
846.218	97.124
846.346	98.577
846.474	98.381
846.602	99.000
846.730	97.268
846.858	98.381
846.987	97.701
847.115	99.722
847.243	98.165
847.371	99.320
847.499	98.619
847.627	98.124
847.755	99.072
847.883	99.423
848.012	98.392
848.140	97.505
848.268	97.938
848.396	97.938
848.524	100.144
848.652	98.567
848.780	97.485
848.908	99.639
849.037	98.227
849.165	97.196
849.293	97.268
849.421	99.278
849.549	98.536
849.677	98.443
849.805	98.299
849.933	98.732
850.062	98.742
850.190	97.588
850.318	98.412
850.446	98.392
850.574	98.351
850.702	98.258
850.830	96.979
850.958	98.670
851.087	99.794
851.215	99.103
851.343	98.175
851.471	98.990
851.599	100.175
851.727	98.990
851.855	98.835
851.983	97.423
852.112	98.474
852.240	98.928
852.368	99.897
852.496	98.010
852.624	98.557
852.752	98.866
852.880	98.670
853.008	97.629
853.137	97.732
853.265	99.588
853.393	97.392
853.521	97.835
853.649	98.608
853.777	98.649
853.905	98.938
854.033	98.928
854.162	97.928
854.290	97.186
854.418	98.495
854.546	98.835
854.674	98.567
854.802	97.887
854.930	97.505
855.058	97.969
855.187	99.711
855.315	99.134
855.443	99.062
855.571	98.557
855.699	98.701
855.827	97.175
855.955	97.247
856.083	99.320
856.212	98.546
856.340	97.969
856.468	98.598
856.596	98.825
856.724	99.093
856.852	99.278
856.980	97.196
857.108	98.237
857.237	98.619
857.365	98.299
857.493	98.969
857.621	98.732
857.749	98.340
857.877	97.784
858.005	97.412
858.133	96.103
858.262	97.443
858.390	98.753
858.518	97.979
858.646	99.299
858.774	97.835
858.902	98.979
859.030	98.010
859.158	99.856
859.287	96.959
859.415	95.773
859.543	97.258
859.671	98.041
859.799	98.041
859.927	98.691
860.055	98.144
860.183	98.216
860.312	97.021
860.440	96.907
860.568	97.412
860.696	97.340
860.824	98.608
860.952	99.113
861.080	98.691
861.208	98.588
861.337	97.536
861.465	98.784
861.593	99.990
861.721	99.454
861.849	98.155
861.977	97.124
862.105	98.206
862.233	100.454
862.362	98.124
862.490	96.577
862.618	97.732
862.746	98.186
862.874	99.392
863.002	98.381
863.130	98.649
863.258	99.608
863.387	98.485
863.515	98.000
863.643	98.175
863.771	98.464
863.899	99.247
864.027	99.969
864.155	99.031
864.283	97.454
864.412	98.876
864.540	98.804
864.668	98.897
864.796	99.660
864.924	98.175
865.052	99.320
865.180	100.804
865.308	98.959
865.437	98.227
865.565	97.722
865.693	98.299
865.821	97.649
865.949	99.134
866.077	98.784
866.205	99.639
866.333	99.887
866.462	97.784
866.590	99.371
866.718	99.907
866.846	98.763
866.974	100.278
867.102	98.464
867.230	100.443
867.358	99.773
867.487	98.856
867.615	98.866
867.743	98.660
867.871	99.062
867.999	99.814
868.127	98.351
868.255	98.876
868.383	98.856
868.512	99.299
868.640	98.381
868.768	98.546
868.896	97.969
869.024	98.485
869.152	97.876
869.280	98.567
869.408	98.031
869.537	99.845
869.665	99.268
869.793	100.340
869.921	98.237
870.049	98.247
870.177	99.268
870.305	97.412
870.433	97.443
870.562	98.423
870.690	97.608
870.818	99.948
870.946	99.258
871.074	98.979
871.202	99.000
871.330	98.845
871.458	100.670
871.587	98.134
871.715	99.474
871.843	100.175
871.971	98.505
872.099	96.732
872.227	98.804
872.355	97.371
872.483	97.608
872.612	99.505
872.740	97.649
872.868	99.732
872.996	97.701
873.124	97.247
873.252	100.186
873.380	99.918
873.508	98.928
873.637	99.660
873.765	98.845
873.893	99.299
874.021	98.959
874.149	98.423
874.277	99.526
874.405	99.103
874.533	98.299
874.662	99.330
874.790	99.577
874.918	98.773
875.046	98.567
875.174	97.938
875.302	98.320
875.430	98.546
875.558	98.206
875.687	98.412
875.815	100.330
875.943	99.124
876.071	99.340
876.199	98.866
876.327	98.649
876.455	99.557
876.583	98.247
876.712	99.588
876.840	98.299
876.968	99.299
877.096	98.155
877.224	98.546
877.352	99.402
877.480	99.907
877.608	98.536
877.737	100.361
877.865	100.412
877.993	98.505
878.121	98.093
878.249	99.763
878.377	99.938
878.505	98.361
878.633	99.948
878.762	99.969
878.890	98.392
879.018	100.103
879.146	100.598
879.274	99.969
879.402	100.165
879.530	97.155
879.658	97.701
879.787	98.691
879.915	98.990
880.043	99.979
880.171	98.887
880.299	99.639
880.427	98.536
880.555	98.691
880.683	100.495
880.812	99.423
880.940	98.763
881.068	99.289
881.196	98.485
881.324	99.814
881.452	99.361
881.580	98.794
881.708	98.144
881.837	98.505
881.965	98.371
882.093	97.753
882.221	98.052
882.349	98.021
882.477	100.443
882.605	100.155
882.733	98.804
882.862	99.670
882.990	100.959
883.118	99.887
883.246	100.247
883.374	99.258
883.502	99.979
883.630	98.588
883.758	99.227
883.887	99.567
884.015	98.412
884.143	99.196
884.271	97.732
884.399	98.887
884.527	98.990
884.655	100.031
884.783	100.175
884.912	99.165
885.040	100.155
885.168	99.124
885.296	98.567
885.424	99.732
885.552	99.649
885.680	100.103
885.808	97.887
885.937	99.412
886.065	98.577
886.193	97.495
886.321	98.670
886.449	98.938
886.577	99.381
886.705	97.876
886.833	98.495
886.962	99.784
887.090	98.711
887.218	97.742
887.346	98.485
887.474	100.041
887.602	98.165
887.730	98.526
887.858	99.268
887.987	98.784
888.115	99.773
888.243	98.299
888.371	100.082
888.499	99.742
888.627	98.804
888.755	98.485
888.883	101.227
889.012	99.093
889.140	99.041
889.268	98.577
889.396	99.948
889.524	98.804
889.652	99.464
889.780	99.237
889.908	98.485
890.037	98.227
890.165	98.546
890.293	98.402
890.421	98.887
890.549	98.979
890.677	98.454
890.805	99.546
890.933	99.454
891.062	98.660
891.190	99.330
891.318	99.784
891.446	99.649
891.574	99.206
891.702	98.351
891.830	99.938
891.958	99.320
892.087	99.784
892.215	100.289
892.343	99.072
892.471	96.433
892.599	98.866
892.727	99.412
892.855	99.887
892.983	99.165
893.112	99.299
893.240	99.031
893.368	100.247
893.496	97.907
893.624	98.052
893.752	100.320
893.880	98.134
894.008	99.320
894.137	100.113
894.265	99.876
894.393	98.072
894.521	98.969
894.649	99.546
894.777	99.392
894.905	99.443
895.033	101.227
895.162	101.402
895.290	99.340
895.418	100.113
895.546	100.402
895.674	100.443
895.802	100.103
895.930	101.320
896.058	100.485
896.187	98.649
896.315	100.959
896.443	99.443
896.571	99.588
896.699	99.155
896.827	98.814
896.955	100.052
897.083	100.320
897.212	100.443
897.340	99.495
897.468	98.619
897.596	100.804
897.724	99.031
897.852	98.969
897.980	98.330
898.108	98.093
898.237	99.887
898.365	100.495
898.493	100.495
898.621	99.485
898.749	98.639
898.877	98.629
899.005	100.464
899.133	99.918
899.262	100.433
899.390	99.866
899.518	99.876
899.646	99.536
899.774	99.907
899.902	99.216
900.030	101.876
900.158	100.186
900.287	98.990
900.415	99.412
900.543	98.660
900.671	99.866
900.799	99.196
900.927	100.031
901.055	99.825
901.183	98.948
901.312	100.371
901.440	98.608
901.568	99.784
901.696	99.196
901.824	99.567
901.952	98.598
902.080	100.732
902.208	99.485
902.337	100.546
902.465	99.959
902.593	100.979
902.721	100.412
902.849	100.845
902.977	100.567
903.105	100.454
903.233	98.887
903.362	99.948
903.490	99.155
903.618	98.918
903.746	99.412
903.874	100.907
904.002	102.041
904.130	99.711
904.258	100.247
904.387	101.186
904.515	100.907
904.643	99.196
904.771	99.052
904.899	99.144
905.027	99.794
905.155	99.031
905.283	99.825
905.412	100.320
905.540	99.433
905.668	100.897
905.796	99.938
905.924	99.722
906.052	98.969
906.180	100.258
906.308	100.876
906.437	100.680
906.565	101.144
906.693	101.887
906.821	100.897
906.949	100.577
907.077	98.845
907.205	99.515
907.333	99.134
907.462	100.021
907.590	100.247
907.718	100.629
907.846	99.557
907.974	99.918
908.102	100.433
908.230	98.021
908.358	99.227
908.487	98.742
908.615	99.536
908.743	99.763
908.871	99.639
908.999	99.918
909.127	98.588
909.255	100.216
909.383	100.433
909.512	101.258
909.640	100.247
909.768	99.619
909.896	100.495
910.024	101.722
910.152	100.742
910.280	100.619
910.408	99.134
910.537	100.629
910.665	100.082
910.793	100.371
910.921	100.124
911.049	99.928
911.177	100.031
911.305	100.021
911.433	102.000
911.562	102.309
911.690	102.361
911.818	100.474
911.946	100.887
912.074	100.526
912.202	99.536
912.330	100.845
912.458	99.732
912.587	99.907
912.715	100.412
912.843	102.268
912.971	102.959
913.099	102.567
913.227	101.144
913.355	100.948
913.483	100.701
913.612	102.247
913.740	102.701
913.868	101.639
