70_120_wo_Pol_at_750.00nm_cut_at_1179.00Y_01.dat
03.07.2023
11:10:57
cut middle at Y: 1179.00
top cursor: 1231 down cursor: 1127 mean of: 104 lines , 2560 datapoints
wavelength(nm)	intensity[arb. units]
585.996	27021.231
586.124	26530.673
586.252	26564.942
586.380	26675.077
586.508	26783.779
586.637	26877.240
586.765	26935.231
586.893	27026.019
587.021	27073.769
587.149	27110.173
587.277	27214.000
587.405	27239.894
587.533	27332.808
587.662	27388.712
587.790	27340.144
587.918	27339.500
588.046	27292.490
588.174	27418.240
588.302	27423.183
588.430	27428.933
588.558	27317.962
588.687	27441.163
588.815	27517.173
588.943	27347.923
589.071	27473.587
589.199	27484.625
589.327	27417.538
589.455	27452.500
589.583	27422.192
589.712	27379.365
589.840	27386.981
589.968	27351.721
590.096	27492.356
590.224	27468.760
590.352	27541.875
590.480	27406.788
590.608	27378.529
590.737	27437.952
590.865	27468.404
590.993	27332.606
591.121	27385.183
591.249	27397.000
591.377	27370.327
591.505	27415.308
591.633	27370.587
591.762	27401.692
591.890	27445.106
592.018	27516.673
592.146	27456.404
592.274	27414.500
592.402	27392.087
592.530	27613.038
592.658	27505.894
592.787	27586.394
592.915	27630.154
593.043	27504.221
593.171	27677.163
593.299	27641.365
593.427	27634.587
593.555	27692.827
593.683	27676.606
593.812	27756.087
593.940	27782.625
594.068	27803.625
594.196	27849.471
594.324	27940.452
594.452	28151.875
594.580	28062.548
594.708	28150.587
594.837	28167.923
594.965	28274.933
595.093	28311.481
595.221	28460.577
595.349	28426.817
595.477	28465.779
595.605	28602.356
595.733	28568.740
595.862	28570.692
595.990	28599.942
596.118	28712.183
596.246	28816.404
596.374	28851.962
596.502	28881.010
596.630	28879.010
596.758	28893.702
596.887	28970.010
597.015	29034.346
597.143	28985.058
597.271	28966.933
597.399	29146.471
597.527	29054.644
597.655	29083.154
597.783	29144.038
597.912	29075.663
598.040	29223.135
598.168	29116.577
598.296	29076.106
598.424	29248.269
598.552	29067.875
598.680	29096.404
598.808	29231.442
598.937	29166.010
599.065	29102.635
599.193	29126.769
599.321	29127.904
599.449	29052.288
599.577	29054.596
599.705	28972.212
599.833	28980.375
599.962	28902.413
600.090	29002.779
600.218	28930.712
600.346	28970.231
600.474	28890.798
600.602	28912.288
600.730	28970.317
600.858	29026.096
600.987	29014.510
601.115	28950.221
601.243	28968.433
601.371	29052.096
601.499	29047.942
601.627	29161.885
601.755	29096.702
601.883	29199.481
602.012	29006.702
602.140	29199.769
602.268	29183.904
602.396	29348.808
602.524	29369.538
602.652	29477.202
602.780	29489.048
602.908	29603.346
603.037	29690.567
603.165	29770.288
603.293	29799.788
603.421	29877.385
603.549	29948.423
603.677	29990.337
603.805	30111.856
603.933	30138.846
604.062	30338.712
604.190	30476.904
604.318	30497.433
604.446	30566.433
604.574	30676.202
604.702	30698.981
604.830	30768.837
604.958	30877.317
605.087	30952.135
605.215	31083.885
605.343	31250.567
605.471	31294.125
605.599	31332.567
605.727	31479.356
605.855	31573.125
605.983	31633.779
606.112	31693.827
606.240	31724.558
606.368	31833.240
606.496	31835.712
606.624	31912.615
606.752	31966.058
606.880	32027.846
607.008	32087.538
607.137	32110.788
607.265	32230.269
607.393	32226.865
607.521	32299.192
607.649	32270.625
607.777	32287.404
607.905	32268.990
608.033	32245.769
608.162	32270.452
608.290	32244.740
608.418	32442.808
608.546	32462.433
608.674	32404.365
608.802	32325.365
608.930	32390.904
609.058	32293.635
609.187	32332.038
609.315	32302.317
609.443	32282.327
609.571	32337.692
609.699	32214.875
609.827	32303.269
609.955	32237.442
610.083	32177.077
610.212	32157.971
610.340	32187.548
610.468	32162.635
610.596	32107.163
610.724	32096.875
610.852	32167.885
610.980	32196.760
611.108	32179.346
611.237	32157.452
611.365	32178.644
611.493	32105.596
611.621	32117.500
611.749	32156.644
611.877	32235.644
612.005	32251.548
612.133	32308.404
612.262	32261.010
612.390	32383.769
612.518	32394.731
612.646	32462.413
612.774	32513.269
612.902	32553.115
613.030	32564.356
613.158	32545.904
613.287	32690.856
613.415	32630.529
613.543	32750.981
613.671	32793.808
613.799	32843.231
613.927	32977.817
614.055	33052.154
614.183	33026.452
614.312	33121.933
614.440	33281.365
614.568	33224.750
614.696	33375.981
614.824	33422.952
614.952	33494.837
615.080	33571.029
615.208	33712.798
615.337	33805.154
615.465	33808.769
615.593	33932.837
615.721	33936.462
615.849	34044.683
615.977	34100.817
616.105	34159.577
616.233	34251.913
616.362	34365.317
616.490	34418.760
616.618	34525.250
616.746	34668.788
616.874	34688.442
617.002	34746.615
617.130	34824.433
617.258	34840.212
617.387	34913.894
617.515	35003.962
617.643	35002.385
617.771	35110.231
617.899	35104.269
618.027	35122.875
618.155	35160.587
618.283	35250.587
618.412	35332.212
618.540	35423.817
618.668	35410.923
618.796	35499.827
618.924	35450.788
619.052	35565.625
619.180	35438.327
619.308	35459.567
619.437	35518.163
619.565	35510.587
619.693	35492.269
619.821	35593.394
619.949	35595.337
620.077	35659.048
620.205	35638.221
620.333	35661.317
620.462	35638.423
620.590	35704.308
620.718	35736.413
620.846	35790.731
620.974	35755.692
621.102	35784.135
621.230	35726.942
621.358	35865.183
621.487	35764.365
621.615	35793.769
621.743	35712.298
621.871	35787.837
621.999	35761.625
622.127	35677.644
622.255	35759.529
622.383	35691.846
622.512	35803.038
622.640	35765.337
622.768	35858.596
622.896	35822.038
623.024	35853.731
623.152	35817.144
623.280	35907.913
623.408	35909.058
623.537	35925.029
623.665	35872.971
623.793	35894.106
623.921	35915.077
624.049	35885.029
624.177	35937.125
624.305	35936.385
624.433	35916.779
624.562	36009.577
624.690	36053.712
624.818	35860.663
624.946	35889.740
625.074	35895.471
625.202	35951.981
625.330	35954.106
625.458	36099.500
625.587	36014.865
625.715	36121.529
625.843	36028.673
625.971	36125.760
626.099	36093.183
626.227	36165.404
626.355	36110.000
626.483	36227.933
626.612	36150.615
626.740	36274.577
626.868	36228.904
626.996	36371.913
627.124	36274.163
627.252	36318.712
627.380	36353.808
627.508	36375.769
627.637	36433.394
627.765	36499.567
627.893	36540.471
628.021	36623.067
628.149	36494.981
628.277	36687.442
628.405	36619.433
628.533	36671.442
628.662	36760.221
628.790	36903.990
628.918	36869.875
629.046	37079.779
629.174	36932.087
629.302	37018.654
629.430	37063.250
629.558	37097.702
629.687	37159.885
629.815	37258.442
629.943	37449.087
630.071	37419.029
630.199	37502.615
630.327	37528.288
630.455	37565.115
630.583	37652.413
630.712	37656.731
630.840	37774.048
630.968	37833.721
631.096	37872.260
631.224	37891.202
631.352	38048.971
631.480	38077.077
631.608	38280.865
631.737	38185.654
631.865	38300.327
631.993	38338.654
632.121	38456.625
632.249	38440.510
632.377	38377.500
632.505	38506.029
632.633	38607.394
632.762	38529.827
632.890	38653.827
633.018	38568.894
633.146	38583.183
633.274	38645.135
633.402	38639.990
633.530	38655.577
633.658	38651.058
633.787	38661.038
633.915	38734.981
634.043	38785.212
634.171	38789.269
634.299	38781.115
634.427	38764.288
634.555	38966.058
634.683	38813.442
634.812	38775.173
634.940	38719.019
635.068	38714.875
635.196	38712.308
635.324	38704.702
635.452	38641.144
635.580	38762.577
635.708	38670.548
635.837	38656.933
635.965	38618.452
636.093	38641.933
636.221	38484.625
636.349	38434.442
636.477	38410.452
636.605	38412.740
636.733	38337.923
636.862	38356.183
636.990	38304.288
637.118	38206.779
637.246	38198.769
637.374	38244.433
637.502	38085.308
637.630	38013.635
637.758	37991.462
637.887	37913.894
638.015	37988.577
638.143	37964.058
638.271	37809.510
638.399	37857.567
638.527	37779.173
638.655	37730.202
638.783	37675.365
638.912	37711.846
639.040	37578.433
639.168	37507.212
639.296	37511.865
639.424	37569.087
639.552	37434.683
639.680	37481.173
639.808	37378.721
639.937	37338.173
640.065	37412.827
640.193	37435.058
640.321	37467.856
640.449	37496.856
640.577	37384.510
640.705	37442.798
640.833	37421.577
640.962	37408.327
641.090	37344.087
641.218	37372.183
641.346	37458.817
641.474	37466.885
641.602	37402.462
641.730	37362.885
641.858	37439.904
641.987	37418.692
642.115	37586.769
642.243	37502.635
642.371	37639.644
642.499	37460.346
642.627	37583.606
642.755	37545.490
642.883	37563.779
643.012	37538.183
643.140	37641.423
643.268	37610.010
643.396	37541.625
643.524	37608.596
643.652	37677.933
643.780	37654.760
643.908	37716.144
644.037	37776.423
644.165	37757.240
644.293	37828.644
644.421	37692.442
644.549	37738.606
644.677	37748.433
644.805	37730.346
644.933	37695.596
645.062	37853.394
645.190	37943.635
645.318	37870.721
645.446	37774.221
645.574	37845.990
645.702	37826.404
645.830	37859.077
645.958	37781.817
646.087	37777.654
646.215	37743.500
646.343	37762.058
646.471	37967.144
646.599	37737.952
646.727	37770.471
646.855	37750.519
646.983	37674.269
647.112	37684.404
647.240	37677.385
647.368	37716.288
647.496	37700.933
647.624	37620.990
647.752	37671.933
647.880	37580.000
648.008	37611.394
648.137	37584.221
648.265	37582.260
648.393	37570.375
648.521	37476.846
648.649	37565.087
648.777	37464.471
648.905	37352.923
649.033	37399.337
649.162	37239.308
649.290	37136.087
649.418	37147.808
649.546	37228.740
649.674	37118.202
649.802	37002.952
649.930	36944.615
650.058	36880.663
650.187	36980.808
650.315	36849.356
650.443	36781.942
650.571	36627.817
650.699	36659.846
650.827	36582.567
650.955	36519.731
651.083	36524.990
651.212	36409.683
651.340	36371.827
651.468	36277.548
651.596	36278.663
651.724	36236.692
651.852	36123.519
651.980	36131.750
652.108	35964.673
652.237	36026.587
652.365	35890.692
652.493	35869.846
652.621	35847.587
652.749	35791.500
652.877	35684.962
653.005	35712.423
653.133	35593.067
653.262	35527.548
653.390	35449.298
653.518	35495.077
653.646	35357.375
653.774	35310.663
653.902	35319.837
654.030	35261.548
654.158	35182.250
654.287	35135.010
654.415	35052.471
654.543	35072.163
654.671	34999.827
654.799	34908.971
654.927	34851.981
655.055	34780.894
655.183	34745.596
655.312	34721.192
655.440	34653.933
655.568	34594.721
655.696	34566.587
655.824	34454.846
655.952	34471.010
656.080	34275.663
656.208	34355.721
656.337	34314.125
656.465	34417.808
656.593	34203.529
656.721	34164.587
656.849	34198.365
656.977	33902.260
657.105	33926.433
657.233	33911.731
657.362	33922.308
657.490	33870.558
657.618	33774.760
657.746	33700.971
657.874	33515.029
658.002	33386.269
658.130	33290.798
658.258	33294.663
658.387	33197.558
658.515	33178.846
658.643	33069.010
658.771	33117.548
658.899	32966.885
659.027	32970.452
659.155	32868.327
659.283	32789.615
659.412	32747.096
659.540	32669.683
659.668	32646.250
659.796	32771.462
659.924	32718.077
660.052	32804.740
660.180	32640.096
660.308	32677.452
660.437	32584.212
660.565	32422.067
660.693	32275.413
660.821	32433.990
660.949	32182.375
661.077	32148.702
661.205	32327.260
661.333	32077.231
661.462	32015.279
661.590	32035.279
661.718	31841.038
661.846	31900.019
661.974	31802.885
662.102	31699.404
662.230	31641.240
662.358	31479.471
662.487	31513.558
662.615	31525.837
662.743	31430.779
662.871	31416.885
662.999	31311.231
663.127	31172.779
663.255	31150.462
663.383	31302.337
663.512	31038.106
663.640	31079.673
663.768	30975.058
663.896	30910.577
664.024	30910.567
664.152	30845.837
664.280	30868.250
664.408	30718.712
664.537	30665.231
664.665	30685.644
664.793	30571.125
664.921	30513.587
665.049	30521.327
665.177	30476.317
665.305	30432.462
665.433	30392.548
665.562	30459.510
665.690	30281.452
665.818	30413.471
665.946	30145.837
666.074	30100.365
666.202	30041.317
666.330	30058.240
666.458	30185.029
666.587	29929.721
666.715	29870.067
666.843	29835.981
666.971	29787.663
667.099	29749.279
667.227	29770.221
667.355	29736.740
667.483	29599.615
667.612	29638.058
667.740	29516.144
667.868	29476.038
667.996	29459.644
668.124	29447.231
668.252	29467.865
668.380	29261.375
668.508	29262.865
668.637	29155.798
668.765	29125.154
668.893	29026.750
669.021	29026.202
669.149	29011.500
669.277	28878.933
669.405	28978.740
669.533	28863.712
669.662	28734.452
669.790	28694.154
669.918	28646.135
670.046	28759.981
670.174	28424.269
670.302	28387.933
670.430	28264.625
670.558	28337.385
670.687	28383.510
670.815	28152.058
670.943	28160.250
671.071	28016.971
671.199	27887.558
671.327	27884.827
671.455	27844.221
671.583	27790.538
671.712	27728.923
671.840	27714.385
671.968	27707.010
672.096	27659.106
672.224	27434.529
672.352	27379.317
672.480	27323.654
672.608	27242.115
672.737	27081.058
672.865	27057.875
672.993	26966.442
673.121	26885.442
673.249	26799.308
673.377	26729.673
673.505	26642.740
673.633	26670.981
673.762	26498.942
673.890	26513.337
674.018	26447.365
674.146	26328.875
674.274	26294.587
674.402	26222.144
674.530	26098.875
674.658	26019.481
674.787	25923.596
674.915	25948.490
675.043	25799.596
675.171	25707.471
675.299	25619.567
675.427	25511.702
675.555	25420.471
675.683	25398.712
675.812	25293.106
675.940	25243.558
676.068	25068.712
676.196	25160.327
676.324	24993.635
676.452	24888.731
676.580	24792.163
676.708	24729.875
676.837	24650.125
676.965	24632.952
677.093	24658.106
677.221	24440.750
677.349	24317.798
677.477	24305.654
677.605	24153.067
677.733	24075.413
677.862	24009.548
677.990	24003.673
678.118	23951.260
678.246	23850.433
678.374	23822.038
678.502	23659.673
678.630	23587.548
678.758	23526.596
678.887	23610.356
679.015	23311.538
679.143	23286.615
679.271	23210.856
679.399	23139.981
679.527	23129.029
679.655	23100.798
679.783	22940.096
679.912	22880.538
680.040	22958.904
680.168	22764.250
680.296	22704.192
680.424	22643.067
680.552	22572.135
680.680	22505.529
680.808	22434.577
680.937	22354.163
681.065	22335.923
681.193	22209.202
681.321	22114.510
681.449	22173.808
681.577	22076.260
681.705	22049.779
681.833	21961.548
681.962	21899.558
682.090	21834.183
682.218	21777.538
682.346	21783.192
682.474	21626.654
682.602	21602.500
682.730	21581.029
682.858	21451.154
682.987	21451.913
683.115	21413.433
683.243	21315.077
683.371	21265.942
683.499	21196.356
683.627	21201.663
683.755	21123.183
683.883	21133.269
684.012	21056.558
684.140	20949.404
684.268	20940.548
684.396	20979.029
684.524	20897.721
684.652	20842.529
684.780	20795.856
684.908	20762.135
685.037	20748.404
685.165	20662.231
685.293	20624.625
685.421	20602.000
685.549	20512.712
685.677	20425.885
685.805	20394.808
685.933	20284.856
686.062	20254.413
686.190	20237.538
686.318	20176.250
686.446	20089.865
686.574	20071.115
686.702	20089.538
686.830	19980.798
686.958	19978.202
687.087	19884.221
687.215	19874.442
687.343	19784.163
687.471	19926.096
687.599	19614.875
687.727	19644.404
687.855	19562.260
687.983	19468.731
688.112	19519.846
688.240	19389.010
688.368	19456.894
688.496	19313.750
688.624	19261.548
688.752	19335.567
688.880	19170.125
689.008	19086.654
689.137	19067.096
689.265	18967.365
689.393	18918.260
689.521	18872.048
689.649	18948.635
689.777	18819.337
689.905	18814.779
690.033	18642.269
690.162	18608.933
690.290	18630.096
690.418	18515.000
690.546	18524.442
690.674	18480.971
690.802	18434.279
690.930	18362.769
691.058	18312.510
691.187	18208.673
691.315	18143.827
691.443	18105.144
691.571	18081.990
691.699	17952.673
691.827	17924.298
691.955	17887.894
692.083	17838.981
692.212	17775.183
692.340	17747.529
692.468	17727.077
692.596	17658.606
692.724	17574.471
692.852	17580.346
692.980	17510.952
693.108	17510.538
693.237	17369.115
693.365	17298.654
693.493	17261.875
693.621	17225.529
693.749	17094.962
693.877	17129.269
694.005	16967.567
694.133	16902.231
694.262	16964.702
694.390	16793.538
694.518	16763.529
694.646	16770.115
694.774	16611.635
694.902	16590.548
695.030	16535.827
695.158	16493.721
695.287	16432.933
695.415	16390.308
695.543	16301.615
695.671	16184.279
695.799	16277.865
695.927	16111.058
696.055	16097.798
696.183	16005.769
696.312	16105.529
696.440	15921.365
696.568	15936.990
696.696	15727.106
696.824	15682.442
696.952	15640.923
697.080	15595.875
697.208	15494.990
697.337	15467.538
697.465	15419.875
697.593	15333.288
697.721	15452.827
697.849	15250.731
697.977	15227.048
698.105	15241.519
698.233	15130.356
698.362	15013.692
698.490	15101.135
698.618	14928.048
698.746	14886.173
698.874	14906.481
699.002	14812.058
699.130	14815.856
699.258	14719.952
699.387	14641.702
699.515	14638.048
699.643	14610.144
699.771	14613.827
699.899	14457.356
700.027	14356.269
700.155	14369.173
700.283	14236.298
700.412	14219.904
700.540	14216.298
700.668	14241.577
700.796	14092.462
700.924	14106.615
701.052	14017.308
701.180	14013.269
701.308	13910.087
701.437	13828.952
701.565	13771.519
701.693	13795.394
701.821	13944.260
701.949	13663.644
702.077	13604.163
702.205	13646.750
702.333	13476.817
702.462	13451.019
702.590	13454.240
702.718	13338.010
702.846	13448.385
702.974	13260.048
703.102	13196.067
703.230	13176.173
703.358	13105.942
703.487	13029.856
703.615	13032.712
703.743	12971.375
703.871	12926.510
703.999	12847.029
704.127	12797.096
704.255	12759.731
704.383	12730.337
704.512	12715.481
704.640	12664.269
704.768	12682.000
704.896	12523.433
705.024	12448.163
705.152	12430.163
705.280	12424.000
705.408	12301.048
705.537	12232.856
705.665	12209.587
705.793	12181.827
705.921	12140.404
706.049	12002.673
706.177	12049.212
706.305	11938.846
706.433	11940.721
706.562	11894.125
706.690	11836.875
706.818	11807.067
706.946	11746.808
707.074	11639.067
707.202	11605.327
707.330	11545.913
707.458	11532.337
707.587	11479.596
707.715	11470.519
707.843	11421.183
707.971	11414.308
708.099	11280.010
708.227	11230.596
708.355	11241.038
708.483	11146.952
708.612	11123.442
708.740	11057.625
708.868	11022.202
708.996	11064.298
709.124	11006.433
709.252	10970.490
709.380	10928.731
709.508	10869.577
709.637	10866.587
709.765	10800.365
709.893	10801.933
710.021	10679.673
710.149	10783.413
710.277	10607.510
710.405	10607.356
710.533	10592.462
710.662	10528.885
710.790	10621.202
710.918	10429.019
711.046	10432.058
711.174	10376.837
711.302	10370.048
711.430	10285.394
711.558	10320.654
711.687	10234.288
711.815	10176.702
711.943	10134.913
712.071	10125.154
712.199	10131.279
712.327	10166.990
712.455	9981.019
712.583	10171.346
712.712	9976.731
712.840	10007.519
712.968	9896.317
713.096	9875.933
713.224	9803.240
713.352	9791.327
713.480	9717.817
713.608	9698.635
713.737	9669.529
713.865	9690.048
713.993	9639.077
714.121	9634.337
714.249	9555.587
714.377	9504.298
714.505	9504.106
714.633	9457.269
714.762	9439.010
714.890	9397.106
715.018	9370.558
715.146	9373.212
715.274	9296.875
715.402	9270.183
715.530	9282.788
715.658	9254.875
715.787	9188.712
715.915	9256.500
716.043	9138.644
716.171	9248.548
716.299	9045.173
716.427	9132.769
716.555	9003.538
716.683	9009.135
716.812	8973.269
716.940	8932.423
717.068	8887.962
717.196	9035.000
717.324	8859.904
717.452	8822.154
717.580	8870.673
717.708	8741.865
717.837	8710.933
717.965	8724.413
718.093	8647.529
718.221	8687.548
718.349	8703.673
718.477	8607.000
718.605	8692.154
718.733	8541.808
718.862	8568.625
718.990	8462.577
719.118	8536.471
719.246	8421.019
719.374	8380.298
719.502	8393.250
719.630	8479.942
719.758	8297.510
719.887	8281.317
720.015	8296.519
720.143	8271.856
720.271	8160.788
720.399	8211.385
720.527	8142.471
720.655	8198.183
720.783	8065.298
720.912	8041.135
721.040	8041.135
721.168	7996.308
721.296	7933.308
721.424	7942.462
721.552	7922.250
721.680	7925.808
721.808	7876.740
721.937	7840.413
722.065	7862.462
722.193	7782.644
722.321	7745.192
722.449	7732.519
722.577	7679.942
722.705	7654.587
722.833	7633.087
722.962	7632.067
723.090	7579.510
723.218	7557.394
723.346	7586.913
723.474	7499.000
723.602	7444.865
723.730	7407.644
723.858	7385.058
723.987	7385.125
724.115	7338.721
724.243	7348.827
724.371	7283.413
724.499	7278.635
724.627	7261.308
724.755	7228.971
724.883	7280.942
725.012	7363.298
725.140	7183.077
725.268	7104.231
725.396	7178.481
725.524	7207.779
725.652	7031.048
725.780	7107.173
725.908	6975.712
726.037	6946.144
726.165	6957.577
726.293	6865.183
726.421	6880.317
726.549	6877.875
726.677	6827.154
726.805	6787.548
726.933	6782.990
727.062	6742.471
727.190	6686.750
727.318	6688.365
727.446	6649.067
727.574	6578.481
727.702	6590.115
727.830	6626.548
727.958	6590.000
728.087	6642.404
728.215	6636.952
728.343	6476.106
728.471	6512.183
728.599	6621.462
728.727	6417.596
728.855	6410.577
728.983	6371.798
729.112	6363.808
729.240	6339.038
729.368	6314.375
729.496	6334.096
729.624	6304.721
729.752	6230.125
729.880	6214.087
730.008	6210.019
730.137	6205.913
730.265	6182.192
730.393	6333.250
730.521	6281.202
730.649	6060.298
730.777	6045.683
730.905	6036.413
731.033	5994.000
731.162	6111.125
731.290	6066.510
731.418	5976.202
731.546	5932.385
731.674	5924.183
731.802	5899.250
731.930	5976.077
732.058	6002.490
732.187	5876.606
732.315	5866.587
732.443	5969.913
732.571	5876.375
732.699	5832.990
732.827	5841.846
732.955	5761.769
733.083	5743.538
733.212	5790.154
733.340	5713.750
733.468	5685.702
733.596	5704.587
733.724	5672.240
733.852	5669.442
733.980	5644.452
734.108	5825.538
734.237	5621.654
734.365	5606.894
734.493	5573.404
734.621	5554.000
734.749	5556.962
734.877	5553.010
735.005	5539.240
735.133	5477.577
735.262	5585.913
735.390	5464.683
735.518	5451.490
735.646	5524.962
735.774	5487.837
735.902	5508.500
736.030	5375.933
736.158	5410.010
736.287	5416.327
736.415	5366.721
736.543	5362.625
736.671	5306.385
736.799	5359.096
736.927	5334.269
737.055	5399.856
737.183	5279.433
737.312	5218.913
737.440	5252.125
737.568	5337.192
737.696	5301.000
737.824	5222.981
737.952	5456.817
738.080	5158.317
738.208	5234.798
738.337	5195.038
738.465	5170.125
738.593	5143.144
738.721	5144.913
738.849	5200.375
738.977	5068.654
739.105	5105.058
739.233	5087.346
739.362	5039.115
739.490	5026.413
739.618	5103.087
739.746	5074.885
739.874	5011.346
740.002	5030.154
740.130	4985.971
740.258	4954.827
740.387	4993.269
740.515	4951.125
740.643	4936.269
740.771	4987.500
740.899	4893.567
741.027	4852.837
741.155	4817.577
741.283	4798.798
741.412	4936.115
741.540	4861.548
741.668	4832.327
741.796	4866.087
741.924	4793.231
742.052	4908.202
742.180	4780.365
742.308	4757.096
742.437	4785.269
742.565	4707.740
742.693	4798.942
742.821	4690.769
742.949	4653.192
743.077	4717.596
743.205	4627.837
743.333	4646.260
743.462	4638.885
743.590	4602.442
743.718	4638.106
743.846	4559.654
743.974	4600.615
744.102	4511.077
744.230	4553.606
744.358	4530.154
744.487	4517.433
744.615	4504.567
744.743	4492.808
744.871	4467.212
744.999	4515.221
745.127	4449.106
745.255	4415.654
745.383	4455.769
745.512	4392.817
745.640	4349.087
745.768	4367.692
745.896	4427.558
746.024	4372.837
746.152	4332.567
746.280	4374.144
746.408	4303.692
746.537	4366.269
746.665	4315.856
746.793	4265.346
746.921	4276.404
747.049	4271.481
747.177	4232.183
747.305	4386.923
747.433	4192.817
747.562	4193.846
747.690	4213.923
747.818	4244.740
747.946	4133.548
748.074	4153.750
748.202	4152.529
748.330	4134.413
748.458	4111.394
748.587	4080.154
748.715	4140.712
748.843	4054.067
748.971	4042.788
749.099	4051.288
749.227	4059.298
749.355	4079.933
749.483	3973.346
749.612	4061.510
749.740	4011.394
749.868	3990.106
749.996	4039.788
750.124	4027.865
750.252	3959.606
750.380	3951.846
750.508	3930.769
750.637	3883.404
750.765	4025.231
750.893	3888.260
751.021	3821.587
751.149	3861.702
751.277	3866.462
751.405	3847.260
751.533	3834.500
751.662	3771.837
751.790	3965.769
751.918	3777.317
752.046	3755.202
752.174	3778.865
752.302	3772.731
752.430	3735.615
752.558	3741.019
752.687	3711.894
752.815	3760.625
752.943	3670.808
753.071	3660.663
753.199	3653.894
753.327	3668.875
753.455	3598.346
753.583	3708.654
753.712	3646.077
753.840	3629.010
753.968	3594.115
754.096	3560.058
754.224	3588.808
754.352	3580.846
754.480	3568.990
754.608	3574.683
754.737	3559.317
754.865	3519.962
754.993	3571.423
755.121	3556.202
755.249	3597.596
755.377	3432.269
755.505	3514.077
755.633	3537.490
755.762	3405.971
755.890	3435.106
756.018	3395.808
756.146	3390.760
756.274	3406.442
756.402	3358.183
756.530	3332.240
756.658	3357.942
756.787	3312.529
756.915	3299.385
757.043	3273.750
757.171	3285.625
757.299	3385.731
757.427	3255.125
757.555	3271.337
757.683	3224.712
757.812	3235.154
757.940	3192.452
758.068	3171.798
758.196	3162.981
758.324	3233.885
758.452	3148.019
758.580	3150.885
758.708	3125.337
758.837	3223.558
758.965	3140.260
759.093	3146.433
759.221	3089.962
759.349	3067.298
759.477	3134.327
759.605	3099.885
759.733	3100.933
759.862	3007.404
759.990	2983.538
760.118	3018.971
760.246	3117.962
760.374	2980.096
760.502	2992.029
760.630	3025.856
760.758	2956.750
760.887	2945.990
761.015	2914.962
761.143	2922.750
761.271	2945.615
761.399	2898.077
761.527	2894.471
761.655	2873.394
761.783	2836.567
761.912	2851.625
762.040	2916.904
762.168	2795.856
762.296	2923.481
762.424	2832.365
762.552	2893.548
762.680	2750.673
762.808	2818.673
762.937	2719.529
763.065	2738.856
763.193	2707.327
763.321	2720.452
763.449	2700.163
763.577	2685.933
763.705	2828.673
763.833	2680.106
763.962	2628.538
764.090	2630.577
764.218	2621.750
764.346	2684.615
764.474	2690.183
764.602	2573.115
764.730	2544.000
764.858	2549.500
764.987	2574.202
765.115	2510.933
765.243	2510.750
765.371	2523.673
765.499	2574.846
765.627	2485.442
765.755	2476.788
765.883	2469.644
766.012	2476.269
766.140	2464.538
766.268	2436.154
766.396	2419.808
766.524	2425.010
766.652	2414.433
766.780	2503.731
766.908	2414.356
767.037	2473.962
767.165	2405.462
767.293	2404.769
767.421	2427.740
767.549	2369.894
767.677	2387.702
767.805	2381.231
767.933	2363.096
768.062	2347.846
768.190	2370.596
768.318	2406.538
768.446	2341.615
768.574	2364.490
768.702	2348.788
768.830	2338.702
768.958	2301.798
769.087	2406.750
769.215	2329.548
769.343	2312.846
769.471	2336.365
769.599	2318.115
769.727	2333.240
769.855	2268.750
769.983	2310.115
770.112	2276.865
770.240	2281.173
770.368	2256.038
770.496	2254.587
770.624	2257.731
770.752	2263.404
770.880	2322.163
771.008	2250.231
771.137	2259.577
771.265	2243.500
771.393	2223.837
771.521	2246.712
771.649	2224.654
771.777	2246.702
771.905	2255.683
772.033	2248.250
772.162	2197.010
772.290	2191.096
772.418	2207.788
772.546	2198.279
772.674	2181.385
772.802	2162.490
772.930	2168.163
773.058	2169.846
773.187	2155.683
773.315	2154.808
773.443	2157.202
773.571	2154.375
773.699	2143.019
773.827	2136.654
773.955	2155.721
774.083	2136.154
774.212	2117.635
774.340	2106.769
774.468	2094.875
774.596	2095.019
774.724	2102.731
774.852	2095.423
774.980	2088.856
775.108	2090.442
775.237	2055.596
775.365	2056.702
775.493	2068.904
775.621	2054.298
775.749	2042.077
775.877	2064.471
776.005	2054.577
776.133	2048.067
776.262	2035.779
776.390	2011.038
776.518	2011.558
776.646	2007.423
776.774	2007.712
776.902	1993.058
777.030	1991.731
777.158	1993.760
777.287	1999.442
777.415	1980.798
777.543	1968.567
777.671	1982.212
777.799	1974.673
777.927	1959.471
778.055	1955.481
778.183	1955.038
778.312	1940.000
778.440	1943.029
778.568	1961.490
778.696	1947.096
778.824	1947.202
778.952	1931.221
779.080	1915.683
779.208	1908.692
779.337	1902.904
779.465	1903.269
779.593	1897.048
779.721	1894.356
779.849	1882.760
779.977	1891.038
780.105	1853.154
780.233	1871.500
780.362	1843.596
780.490	1836.029
780.618	1847.365
780.746	1832.538
780.874	1842.173
781.002	1829.442
781.130	1816.731
781.258	1803.385
781.387	1823.029
781.515	1821.654
781.643	1789.433
781.771	1790.212
781.899	1805.481
782.027	1780.808
782.155	1778.731
782.283	1773.712
782.412	1779.837
782.540	1784.615
782.668	1751.087
782.796	1753.192
782.924	1759.183
783.052	1748.962
783.180	1733.788
783.308	1745.769
783.437	1725.279
783.565	1723.596
783.693	1724.760
783.821	1715.596
783.949	1715.971
784.077	1709.942
784.205	1699.846
784.333	1683.827
784.462	1691.346
784.590	1675.606
784.718	1659.096
784.846	1672.375
784.974	1664.962
785.102	1647.721
785.230	1648.894
785.358	1647.692
785.487	1638.769
785.615	1627.240
785.743	1634.885
785.871	1634.298
785.999	1620.000
786.127	1613.692
786.255	1604.298
786.383	1600.288
786.512	1609.500
786.640	1592.356
786.768	1589.106
786.896	1580.548
787.024	1563.077
787.152	1564.125
787.280	1569.433
787.408	1567.231
787.537	1568.615
787.665	1564.202
787.793	1553.163
787.921	1541.481
788.049	1532.365
788.177	1524.269
788.305	1535.298
788.433	1514.019
788.562	1502.615
788.690	1505.519
788.818	1512.529
788.946	1500.625
789.074	1489.952
789.202	1484.923
789.330	1472.923
789.458	1483.683
789.587	1465.288
789.715	1484.250
789.843	1474.788
789.971	1458.846
790.099	1439.644
790.227	1439.644
790.355	1435.760
790.483	1440.298
790.612	1440.067
790.740	1432.548
790.868	1430.260
790.996	1432.231
791.124	1423.462
791.252	1403.615
791.380	1385.423
791.508	1396.885
791.637	1396.740
791.765	1371.692
791.893	1378.298
792.021	1372.808
792.149	1362.567
792.277	1361.894
792.405	1340.692
792.533	1338.538
792.662	1343.192
792.790	1335.548
792.918	1356.490
793.046	1327.846
793.174	1329.106
793.302	1308.923
793.430	1310.779
793.558	1306.308
793.687	1297.163
793.815	1305.481
793.943	1301.356
794.071	1294.029
794.199	1279.712
794.327	1266.442
794.455	1286.125
794.583	1262.827
794.712	1262.538
794.840	1252.615
794.968	1248.587
795.096	1259.663
795.224	1220.288
795.352	1270.856
795.480	1221.192
795.608	1232.769
795.737	1202.442
795.865	1207.087
795.993	1207.846
796.121	1201.452
796.249	1200.413
796.377	1189.923
796.505	1191.038
796.633	1185.125
796.762	1170.567
796.890	1163.856
797.018	1169.462
797.146	1161.000
797.274	1154.644
797.402	1149.067
797.530	1136.163
797.658	1135.135
797.787	1135.000
797.915	1140.375
798.043	1116.740
798.171	1128.279
798.299	1100.279
798.427	1107.317
798.555	1112.673
798.683	1089.865
798.812	1116.712
798.940	1127.750
799.068	1114.654
799.196	1081.808
799.324	1072.375
799.452	1055.548
799.580	1068.760
799.708	1050.346
799.837	1058.077
799.965	1045.163
800.093	1040.558
800.221	1033.356
800.349	1036.577
800.477	1028.019
800.605	1019.615
800.733	1026.788
800.862	1015.144
800.990	1010.394
801.118	1005.558
801.246	1010.337
801.374	998.413
801.502	988.346
801.630	986.942
801.758	980.337
801.887	963.837
802.015	970.913
802.143	959.471
802.271	963.692
802.399	954.904
802.527	946.519
802.655	956.375
802.783	950.529
802.912	940.596
803.040	932.356
803.168	930.058
803.296	939.635
803.424	919.173
803.552	924.558
803.680	919.721
803.808	914.202
803.937	911.865
804.065	903.490
804.193	907.942
804.321	914.221
804.449	910.462
804.577	897.625
804.705	905.971
804.833	874.337
804.962	880.885
805.090	882.615
805.218	869.375
805.346	856.385
805.474	873.365
805.602	858.442
805.730	870.933
805.858	849.471
805.987	842.163
806.115	839.779
806.243	847.154
806.371	842.798
806.499	834.365
806.627	820.558
806.755	832.038
806.883	827.067
807.012	817.308
807.140	814.548
807.268	799.923
807.396	804.192
807.524	808.875
807.652	808.385
807.780	800.471
807.908	792.712
808.037	794.404
808.165	789.952
808.293	781.865
808.421	776.231
808.549	774.798
808.677	772.731
808.805	788.250
808.933	763.077
809.062	767.183
809.190	771.567
809.318	761.817
809.446	758.615
809.574	763.327
809.702	750.673
809.830	740.096
809.958	754.192
810.087	745.298
810.215	740.250
810.343	734.192
810.471	737.010
810.599	725.635
810.727	734.750
810.855	713.798
810.983	720.798
811.112	725.423
811.240	712.048
811.368	716.740
811.496	714.356
811.624	705.933
811.752	706.135
811.880	717.183
812.008	692.692
812.137	707.750
812.265	692.962
812.393	691.471
812.521	679.894
812.649	679.433
812.777	671.433
812.905	692.442
813.033	675.538
813.162	666.962
813.290	670.048
813.418	663.087
813.546	668.029
813.674	654.827
813.802	650.971
813.930	646.942
814.058	651.519
814.187	648.529
814.315	636.000
814.443	641.067
814.571	639.490
814.699	625.971
814.827	629.788
814.955	634.837
815.083	622.913
815.212	631.337
815.340	614.779
815.468	625.856
815.596	606.712
815.724	613.692
815.852	613.442
815.980	604.654
816.108	611.615
816.237	608.779
816.365	609.375
816.493	598.346
816.621	608.558
816.749	584.327
816.877	651.346
817.005	601.413
817.133	590.558
817.262	581.865
817.390	572.856
817.518	586.875
817.646	574.635
817.774	573.394
817.902	562.221
818.030	562.423
818.158	568.654
818.287	562.865
818.415	558.423
818.543	558.692
818.671	552.058
818.799	549.183
818.927	552.817
819.055	578.279
819.183	554.308
819.312	564.365
819.440	544.538
819.568	534.606
819.696	538.096
819.824	537.875
819.952	541.856
820.080	533.279
820.208	530.038
820.337	531.750
820.465	526.058
820.593	524.279
820.721	522.038
820.849	516.692
820.977	518.154
821.105	512.644
821.233	507.923
821.362	515.673
821.490	508.144
821.618	513.962
821.746	509.548
821.874	500.587
822.002	488.933
822.130	500.010
822.258	502.106
822.387	495.596
822.515	498.923
822.643	487.029
822.771	490.635
822.899	492.817
823.027	478.798
823.155	484.115
823.283	494.337
823.412	490.356
823.540	473.183
823.668	468.538
823.796	470.856
823.924	467.625
824.052	466.558
824.180	472.837
824.308	459.567
824.437	477.587
824.565	471.567
824.693	457.433
824.821	451.260
824.949	459.058
825.077	457.154
825.205	441.942
825.333	450.769
825.462	451.346
825.590	445.192
825.718	441.115
825.846	440.923
825.974	440.894
826.102	437.356
826.230	446.885
826.358	443.058
826.487	440.365
826.615	433.904
826.743	421.394
826.871	436.038
826.999	426.452
827.127	432.846
827.255	429.240
827.383	422.663
827.512	424.885
827.640	425.788
827.768	444.615
827.896	412.433
828.024	423.288
828.152	413.250
828.280	413.913
828.408	408.760
828.537	409.692
828.665	409.567
828.793	406.394
828.921	406.173
829.049	405.567
829.177	403.913
829.305	403.144
829.433	395.500
829.562	395.846
829.690	400.779
829.818	397.173
829.946	398.865
830.074	387.933
830.202	388.038
830.330	397.385
830.458	382.413
830.587	396.096
830.715	383.067
830.843	377.731
830.971	388.837
831.099	382.769
831.227	407.365
831.355	377.144
831.483	378.760
831.612	377.625
831.740	365.663
831.868	373.798
831.996	380.519
832.124	375.510
832.252	379.846
832.380	369.231
832.508	371.827
832.637	371.365
832.765	372.154
832.893	366.904
833.021	364.673
833.149	358.087
833.277	361.317
833.405	362.096
833.533	355.250
833.662	363.942
833.790	353.481
833.918	358.519
834.046	353.712
834.174	350.865
834.302	353.317
834.430	351.317
834.558	347.885
834.687	354.692
834.815	348.269
834.943	340.163
835.071	346.721
835.199	346.990
835.327	342.885
835.455	346.288
835.583	338.529
835.712	336.923
835.840	341.125
835.968	334.115
836.096	343.519
836.224	335.288
836.352	343.144
836.480	332.433
836.608	329.365
836.737	334.904
836.865	324.298
836.993	336.913
837.121	339.587
837.249	334.462
837.377	320.702
837.505	317.933
837.633	326.000
837.762	327.413
837.890	322.567
838.018	325.317
838.146	316.635
838.274	321.702
838.402	318.000
838.530	333.327
838.658	322.375
838.787	322.212
838.915	312.952
839.043	322.490
839.171	311.779
839.299	316.308
839.427	332.615
839.555	319.721
839.683	307.769
839.812	311.423
839.940	301.490
840.068	309.942
840.196	333.337
840.324	325.471
840.452	308.808
840.580	303.327
840.708	299.654
840.837	307.202
840.965	305.471
841.093	300.231
841.221	305.481
841.349	302.519
841.477	294.750
841.605	293.635
841.733	300.000
841.862	307.423
841.990	295.529
842.118	292.500
842.246	294.442
842.374	286.577
842.502	304.798
842.630	290.096
842.758	289.923
842.887	300.212
843.015	306.173
843.143	287.423
843.271	294.000
843.399	289.356
843.527	290.750
843.655	283.971
843.783	285.298
843.912	284.202
844.040	282.683
844.168	287.837
844.296	296.519
844.424	291.462
844.552	292.029
844.680	290.048
844.808	282.904
844.937	277.894
845.065	278.894
845.193	294.673
845.321	281.462
845.449	289.606
845.577	283.135
845.705	273.471
845.833	273.221
845.962	285.971
846.090	273.990
846.218	284.779
846.346	279.058
846.474	277.221
846.602	266.231
846.730	274.135
846.858	274.346
846.987	268.250
847.115	281.577
847.243	279.731
847.371	262.173
847.499	267.481
847.627	266.471
847.755	264.067
847.883	278.673
848.012	273.000
848.140	264.894
848.268	265.587
848.396	267.212
848.524	273.106
848.652	261.971
848.780	262.740
848.908	265.298
849.037	263.048
849.165	259.683
849.293	266.452
849.421	262.750
849.549	262.212
849.677	263.212
849.805	266.971
849.933	259.279
850.062	267.769
850.190	257.529
850.318	254.587
850.446	262.846
850.574	255.817
850.702	253.760
850.830	250.712
850.958	253.567
851.087	262.154
851.215	253.029
851.343	252.510
851.471	255.067
851.599	256.029
851.727	263.817
851.855	254.000
851.983	255.144
852.112	251.740
852.240	260.346
852.368	260.510
852.496	251.510
852.624	259.010
852.752	254.644
852.880	253.587
853.008	251.760
853.137	252.442
853.265	255.750
853.393	249.712
853.521	244.817
853.649	257.500
853.777	243.452
853.905	243.404
854.033	240.808
854.162	239.894
854.290	241.587
854.418	257.644
854.546	273.798
854.674	263.183
854.802	248.125
854.930	241.519
855.058	246.298
855.187	238.173
855.315	269.567
855.443	240.788
855.571	243.481
855.699	252.212
855.827	235.923
855.955	235.327
856.083	240.356
856.212	237.365
856.340	240.106
856.468	238.885
856.596	242.712
856.724	247.538
856.852	254.154
856.980	236.558
857.108	234.471
857.237	229.673
857.365	244.356
857.493	240.106
857.621	237.827
857.749	231.058
857.877	229.808
858.005	230.885
858.133	236.817
858.262	227.048
858.390	227.433
858.518	221.865
858.646	240.106
858.774	227.154
858.902	227.048
859.030	231.808
859.158	236.519
859.287	230.885
859.415	236.192
859.543	232.019
859.671	237.510
859.799	238.375
859.927	226.019
860.055	223.885
860.183	221.615
860.312	226.731
860.440	228.596
860.568	218.385
860.696	234.038
860.824	238.163
860.952	222.462
861.080	226.885
861.208	227.115
861.337	230.135
861.465	234.452
861.593	233.740
861.721	231.356
861.849	227.519
861.977	222.885
862.105	230.875
862.233	223.010
862.362	218.125
862.490	221.346
862.618	221.683
862.746	221.462
862.874	227.760
863.002	227.394
863.130	228.183
863.258	224.029
863.387	223.096
863.515	223.798
863.643	226.346
863.771	224.173
863.899	225.856
864.027	224.154
864.155	247.606
864.283	221.413
864.412	216.712
864.540	223.615
864.668	216.798
864.796	216.269
864.924	219.077
865.052	215.654
865.180	235.288
865.308	221.548
865.437	221.865
865.565	209.519
865.693	213.587
865.821	209.615
865.949	237.788
866.077	219.096
866.205	215.481
866.333	221.865
866.462	209.990
866.590	220.942
866.718	216.837
866.846	211.683
866.974	218.827
867.102	210.394
867.230	221.558
867.358	218.952
867.487	223.298
867.615	227.750
867.743	214.125
867.871	227.817
867.999	214.740
868.127	224.356
868.255	227.942
868.383	208.769
868.512	219.240
868.640	216.202
868.768	213.635
868.896	222.183
869.024	217.356
869.152	213.192
869.280	209.317
869.408	211.038
869.537	207.077
869.665	208.865
869.793	211.740
869.921	212.240
870.049	204.788
870.177	212.779
870.305	207.058
870.433	209.538
870.562	216.933
870.690	211.356
870.818	218.317
870.946	205.087
871.074	204.692
871.202	205.269
871.330	204.231
871.458	210.154
871.587	211.875
871.715	209.635
871.843	207.808
871.971	214.740
872.099	200.779
872.227	214.712
872.355	208.558
872.483	206.202
872.612	211.971
872.740	205.365
872.868	207.615
872.996	206.346
873.124	220.760
873.252	207.692
873.380	201.365
873.508	218.240
873.637	213.452
873.765	205.462
873.893	210.288
874.021	208.635
874.149	206.144
874.277	208.413
874.405	211.885
874.533	213.577
874.662	203.827
874.790	208.856
874.918	202.827
875.046	208.558
875.174	204.798
875.302	202.933
875.430	201.433
875.558	211.712
875.687	211.442
875.815	205.115
875.943	204.827
876.071	204.115
876.199	208.433
876.327	208.510
876.455	206.394
876.583	201.692
876.712	211.712
876.840	205.346
876.968	204.173
877.096	205.750
877.224	204.567
877.352	198.779
877.480	205.250
877.608	211.817
877.737	206.913
877.865	198.462
877.993	209.096
878.121	207.077
878.249	204.567
878.377	200.337
878.505	206.635
878.633	206.327
878.762	201.788
878.890	198.856
879.018	208.596
879.146	201.817
879.274	228.942
879.402	205.288
879.530	203.750
879.658	203.038
879.787	203.135
879.915	201.337
880.043	201.212
880.171	238.663
880.299	207.260
880.427	207.212
880.555	196.385
880.683	208.587
880.812	203.558
880.940	198.231
881.068	208.769
881.196	201.933
881.324	199.010
881.452	196.462
881.580	205.519
881.708	210.529
881.837	201.606
881.965	205.019
882.093	198.269
882.221	197.029
882.349	192.769
882.477	199.452
882.605	201.692
882.733	204.462
882.862	197.067
882.990	209.442
883.118	208.942
883.246	207.923
883.374	198.183
883.502	204.221
883.630	203.000
883.758	196.837
883.887	201.683
884.015	204.298
884.143	207.577
884.271	198.990
884.399	195.394
884.527	199.644
884.655	199.250
884.783	199.635
884.912	225.125
885.040	209.933
885.168	193.481
885.296	207.529
885.424	198.548
885.552	203.683
885.680	211.462
885.808	207.029
885.937	205.442
886.065	211.481
886.193	197.635
886.321	199.029
886.449	198.981
886.577	198.663
886.705	212.260
886.833	192.615
886.962	202.625
887.090	200.346
887.218	195.971
887.346	196.375
887.474	197.115
887.602	195.760
887.730	193.615
887.858	193.615
887.987	195.183
888.115	199.183
888.243	194.962
888.371	210.404
888.499	199.135
888.627	197.413
888.755	200.337
888.883	199.433
889.012	207.173
889.140	199.135
889.268	203.317
889.396	193.635
889.524	205.308
889.652	189.135
889.780	194.154
889.908	195.173
890.037	202.644
890.165	197.490
890.293	198.673
890.421	199.644
890.549	188.048
890.677	190.654
890.805	198.856
890.933	191.606
891.062	198.212
891.190	200.298
891.318	192.635
891.446	196.654
891.574	187.202
891.702	193.442
891.830	197.500
891.958	205.702
892.087	200.837
892.215	196.135
892.343	197.298
892.471	200.144
892.599	189.529
892.727	200.692
892.855	214.144
892.983	191.529
893.112	193.269
893.240	203.817
893.368	194.365
893.496	204.231
893.624	198.346
893.752	217.712
893.880	203.798
894.008	195.567
894.137	193.192
894.265	196.702
894.393	191.548
894.521	200.490
894.649	195.981
894.777	187.654
894.905	232.250
895.033	191.096
895.162	191.923
895.290	197.962
895.418	197.019
895.546	229.096
895.674	198.894
895.802	234.317
895.930	196.798
896.058	191.558
896.187	193.144
896.315	189.231
896.443	200.971
896.571	217.298
896.699	190.837
896.827	190.038
896.955	193.971
897.083	195.413
897.212	196.760
897.340	192.250
897.468	192.173
897.596	189.298
897.724	189.288
897.852	186.067
897.980	187.567
898.108	196.510
898.237	189.625
898.365	187.135
898.493	197.212
898.621	189.894
898.749	192.904
898.877	194.327
899.005	191.385
899.133	193.375
899.262	204.394
899.390	190.933
899.518	196.462
899.646	185.135
899.774	185.827
899.902	184.856
900.030	200.894
900.158	194.452
900.287	196.769
900.415	187.356
900.543	194.135
900.671	199.385
900.799	188.654
900.927	186.058
901.055	198.308
901.183	201.548
901.312	198.798
901.440	186.990
901.568	187.308
901.696	190.385
901.824	184.923
901.952	186.413
902.080	193.788
902.208	191.058
902.337	198.404
902.465	191.500
902.593	203.394
902.721	213.490
902.849	208.990
902.977	192.692
903.105	193.231
903.233	190.923
903.362	181.760
903.490	198.163
903.618	192.817
903.746	185.587
903.874	194.769
904.002	189.760
904.130	200.308
904.258	181.683
904.387	193.769
904.515	182.538
904.643	192.038
904.771	186.731
904.899	186.087
905.027	191.750
905.155	188.385
905.283	182.019
905.412	205.087
905.540	191.202
905.668	187.058
905.796	189.625
905.924	186.962
906.052	190.260
906.180	194.885
906.308	186.481
906.437	187.433
906.565	191.673
906.693	199.048
906.821	183.452
906.949	186.538
907.077	183.548
907.205	192.404
907.333	182.346
907.462	181.615
907.590	186.981
907.718	185.548
907.846	194.000
907.974	182.231
908.102	186.481
908.230	190.702
908.358	188.019
908.487	183.260
908.615	197.000
908.743	194.125
908.871	186.529
908.999	184.567
909.127	187.202
909.255	195.192
909.383	182.875
909.512	180.567
909.640	198.798
909.768	182.788
909.896	190.721
910.024	195.135
910.152	195.635
910.280	191.894
910.408	182.394
910.537	185.221
910.665	191.990
910.793	190.923
910.921	191.808
911.049	196.731
911.177	195.519
911.305	187.163
911.433	214.673
911.562	194.750
911.690	189.962
911.818	190.106
911.946	187.394
912.074	195.865
912.202	188.231
912.330	202.750
912.458	179.279
912.587	188.385
912.715	195.365
912.843	201.663
912.971	195.769
913.099	207.913
913.227	197.481
913.355	195.510
913.483	204.817
913.612	198.279
913.740	223.490
913.868	194.000
