70_120_90_Pol_at_750.00nm_cut_at_1179.00Y_01.dat
03.07.2023
11:11:55
cut middle at Y: 1179.00
top cursor: 1231 down cursor: 1127 mean of: 104 lines , 2560 datapoints
wavelength(nm)	intensity[arb. units]
585.996	10354.625
586.124	10139.875
586.252	10101.087
586.380	10153.615
586.508	10192.375
586.637	10254.029
586.765	10220.442
586.893	10235.067
587.021	10307.010
587.149	10300.135
587.277	10283.490
587.405	10307.221
587.533	10352.212
587.662	10396.423
587.790	10344.606
587.918	10349.144
588.046	10328.356
588.174	10383.654
588.302	10357.308
588.430	10368.462
588.558	10381.712
588.687	10397.769
588.815	10426.038
588.943	10371.673
589.071	10364.644
589.199	10374.683
589.327	10360.048
589.455	10444.163
589.583	10407.317
589.712	10348.663
589.840	10345.760
589.968	10359.394
590.096	10385.471
590.224	10348.106
590.352	10414.173
590.480	10353.462
590.608	10346.654
590.737	10359.683
590.865	10436.192
590.993	10309.808
591.121	10389.615
591.249	10339.596
591.377	10318.173
591.505	10447.048
591.633	10340.558
591.762	10344.404
591.890	10350.865
592.018	10473.577
592.146	10373.990
592.274	10398.808
592.402	10337.731
592.530	10535.750
592.658	10424.029
592.787	10411.673
592.915	10483.673
593.043	10381.183
593.171	10469.663
593.299	10424.942
593.427	10421.538
593.555	10457.327
593.683	10463.067
593.812	10496.375
593.940	10524.125
594.068	10494.000
594.196	10491.702
594.324	10527.038
594.452	10721.904
594.580	10611.827
594.708	10627.365
594.837	10620.481
594.965	10719.885
595.093	10648.231
595.221	10739.529
595.349	10708.192
595.477	10726.750
595.605	10773.413
595.733	10767.548
595.862	10803.587
595.990	10822.587
596.118	10861.683
596.246	10929.433
596.374	10868.798
596.502	10877.240
596.630	10917.837
596.758	10893.385
596.887	10933.385
597.015	10929.490
597.143	10916.337
597.271	10909.413
597.399	10979.240
597.527	10945.817
597.655	10963.760
597.783	10969.904
597.912	10988.471
598.040	11005.712
598.168	10995.683
598.296	10951.327
598.424	11137.663
598.552	10964.740
598.680	10999.817
598.808	11023.000
598.937	10954.779
599.065	10984.212
599.193	11026.125
599.321	11005.106
599.449	10950.375
599.577	10958.846
599.705	10987.471
599.833	10938.048
599.962	10882.654
600.090	10967.462
600.218	10969.250
600.346	10966.192
600.474	10910.327
600.602	10894.058
600.730	10906.115
600.858	10926.385
600.987	11007.587
601.115	10955.721
601.243	11025.942
601.371	11037.154
601.499	11007.702
601.627	11049.240
601.755	10982.385
601.883	11052.490
602.012	10960.269
602.140	11056.375
602.268	11047.798
602.396	11194.606
602.524	11095.231
602.652	11175.125
602.780	11162.067
602.908	11190.750
603.037	11239.615
603.165	11230.904
603.293	11257.135
603.421	11277.077
603.549	11304.288
603.677	11376.490
603.805	11387.135
603.933	11390.298
604.062	11460.115
604.190	11494.837
604.318	11527.250
604.446	11519.769
604.574	11578.779
604.702	11638.933
604.830	11599.558
604.958	11648.385
605.087	11708.183
605.215	11769.346
605.343	11872.125
605.471	11881.490
605.599	11797.452
605.727	11917.769
605.855	11908.952
605.983	11959.663
606.112	12000.010
606.240	12011.990
606.368	12023.317
606.496	12006.885
606.624	12122.221
606.752	12083.769
606.880	12147.538
607.008	12105.808
607.137	12121.981
607.265	12247.385
607.393	12173.721
607.521	12286.413
607.649	12227.952
607.777	12212.846
607.905	12235.740
608.033	12199.231
608.162	12224.106
608.290	12190.577
608.418	12305.337
608.546	12299.971
608.674	12326.740
608.802	12242.856
608.930	12265.183
609.058	12209.615
609.187	12215.173
609.315	12211.519
609.443	12185.144
609.571	12342.750
609.699	12200.019
609.827	12316.010
609.955	12244.048
610.083	12161.202
610.212	12187.260
610.340	12144.500
610.468	12197.692
610.596	12171.923
610.724	12171.471
610.852	12228.356
610.980	12218.106
611.108	12179.942
611.237	12184.567
611.365	12238.394
611.493	12171.385
611.621	12156.346
611.749	12213.913
611.877	12272.808
612.005	12220.500
612.133	12276.000
612.262	12245.779
612.390	12281.962
612.518	12343.000
612.646	12314.067
612.774	12386.385
612.902	12384.154
613.030	12368.385
613.158	12363.606
613.287	12449.712
613.415	12377.837
613.543	12455.952
613.671	12434.683
613.799	12483.240
613.927	12519.423
614.055	12546.875
614.183	12607.548
614.312	12545.615
614.440	12694.096
614.568	12656.663
614.696	12680.481
614.824	12686.058
614.952	12776.163
615.080	12742.221
615.208	12793.981
615.337	12906.760
615.465	12809.596
615.593	12916.048
615.721	12937.913
615.849	12977.981
615.977	12956.000
616.105	13016.000
616.233	13058.317
616.362	13089.529
616.490	13076.144
616.618	13125.885
616.746	13233.587
616.874	13210.433
617.002	13237.942
617.130	13252.721
617.258	13229.058
617.387	13315.683
617.515	13292.798
617.643	13314.087
617.771	13375.500
617.899	13363.577
618.027	13426.019
618.155	13418.452
618.283	13444.423
618.412	13440.952
618.540	13532.846
618.668	13471.183
618.796	13518.913
618.924	13505.279
619.052	13525.327
619.180	13512.615
619.308	13492.760
619.437	13540.356
619.565	13571.269
619.693	13540.827
619.821	13577.375
619.949	13563.740
620.077	13620.212
620.205	13639.913
620.333	13647.481
620.462	13609.538
620.590	13651.731
620.718	13655.106
620.846	13690.356
620.974	13682.192
621.102	13733.606
621.230	13675.029
621.358	13835.279
621.487	13715.260
621.615	13730.577
621.743	13627.779
621.871	13774.240
621.999	13672.808
622.127	13712.846
622.255	13699.192
622.383	13705.779
622.512	13696.240
622.640	13706.615
622.768	13773.144
622.896	13831.231
623.024	13769.625
623.152	13736.548
623.280	13840.548
623.408	13789.663
623.537	13802.875
623.665	13771.644
623.793	13847.000
623.921	13813.885
624.049	13792.221
624.177	13817.538
624.305	13800.212
624.433	13857.048
624.562	13855.615
624.690	13982.567
624.818	13807.442
624.946	13868.202
625.074	13818.942
625.202	13800.394
625.330	13874.990
625.458	13969.038
625.587	13846.000
625.715	13956.990
625.843	13913.913
625.971	13949.365
626.099	13922.087
626.227	13942.250
626.355	13909.048
626.483	14018.288
626.612	13960.548
626.740	14009.519
626.868	14000.067
626.996	14065.856
627.124	14010.933
627.252	14013.250
627.380	14046.115
627.508	14017.423
627.637	14089.125
627.765	14129.260
627.893	14163.942
628.021	14207.240
628.149	14125.779
628.277	14226.500
628.405	14197.404
628.533	14203.625
628.662	14239.952
628.790	14319.971
628.918	14256.837
629.046	14402.750
629.174	14319.827
629.302	14351.740
629.430	14337.702
629.558	14393.365
629.687	14343.413
629.815	14390.596
629.943	14498.471
630.071	14493.971
630.199	14512.067
630.327	14523.481
630.455	14535.673
630.583	14569.683
630.712	14608.250
630.840	14651.058
630.968	14624.875
631.096	14658.192
631.224	14696.606
631.352	14801.952
631.480	14756.587
631.608	14887.019
631.737	14759.433
631.865	14866.106
631.993	14838.625
632.121	15001.279
632.249	14889.327
632.377	14871.231
632.505	14891.019
632.633	14934.365
632.762	14859.067
632.890	14920.817
633.018	14934.750
633.146	14936.856
633.274	14914.740
633.402	15012.365
633.530	14961.029
633.658	14973.385
633.787	15000.471
633.915	14979.471
634.043	14991.971
634.171	15038.135
634.299	15009.529
634.427	14982.952
634.555	15226.683
634.683	15002.404
634.812	15023.683
634.940	14983.990
635.068	15017.385
635.196	14959.471
635.324	14991.702
635.452	14995.125
635.580	15086.538
635.708	14926.731
635.837	14989.471
635.965	14933.269
636.093	14942.538
636.221	14914.577
636.349	14856.442
636.477	14855.596
636.605	14959.462
636.733	14856.971
636.862	14831.308
636.990	14846.692
637.118	14860.567
637.246	14764.183
637.374	14945.567
637.502	14749.808
637.630	14754.058
637.758	14736.058
637.887	14694.433
638.015	14832.981
638.143	14753.952
638.271	14659.577
638.399	14727.885
638.527	14605.067
638.655	14659.096
638.783	14603.481
638.912	14656.087
639.040	14586.596
639.168	14557.606
639.296	14543.471
639.424	14601.365
639.552	14575.183
639.680	14577.519
639.808	14555.788
639.937	14509.856
640.065	14470.933
640.193	14501.856
640.321	14606.019
640.449	14565.933
640.577	14512.760
640.705	14545.048
640.833	14512.577
640.962	14650.308
641.090	14516.471
641.218	14543.606
641.346	14620.308
641.474	14554.712
641.602	14562.269
641.730	14521.894
641.858	14550.615
641.987	14557.135
642.115	14707.298
642.243	14569.010
642.371	14772.067
642.499	14614.596
642.627	14670.952
642.755	14640.990
642.883	14632.298
643.012	14674.837
643.140	14718.106
643.268	14675.760
643.396	14678.933
643.524	14674.490
643.652	14805.712
643.780	14709.000
643.908	14671.981
644.037	14819.740
644.165	14787.000
644.293	14910.067
644.421	14728.798
644.549	14791.327
644.677	14827.846
644.805	14766.875
644.933	14723.462
645.062	14868.798
645.190	14937.856
645.318	14808.192
645.446	14772.413
645.574	14798.760
645.702	14827.192
645.830	14816.798
645.958	14791.231
646.087	14807.808
646.215	14732.394
646.343	14810.077
646.471	14966.913
646.599	14794.442
646.727	14792.192
646.855	14818.933
646.983	14759.635
647.112	14886.394
647.240	14767.144
647.368	14838.077
647.496	14783.538
647.624	14763.904
647.752	14749.567
647.880	14715.846
648.008	14747.029
648.137	14801.365
648.265	14731.596
648.393	14812.365
648.521	14705.798
648.649	14803.731
648.777	14732.490
648.905	14682.058
649.033	14769.288
649.162	14620.462
649.290	14599.856
649.418	14580.250
649.546	14766.077
649.674	14585.000
649.802	14550.567
649.930	14474.106
650.058	14489.769
650.187	14496.125
650.315	14478.038
650.443	14470.481
650.571	14423.760
650.699	14387.279
650.827	14375.452
650.955	14317.433
651.083	14394.519
651.212	14284.394
651.340	14312.529
651.468	14269.894
651.596	14272.260
651.724	14280.183
651.852	14189.990
651.980	14223.308
652.108	14160.635
652.237	14186.606
652.365	14112.596
652.493	14094.308
652.621	14053.913
652.749	14041.394
652.877	14030.077
653.005	14098.337
653.133	13996.346
653.262	13961.154
653.390	13941.490
653.518	14054.288
653.646	13902.615
653.774	13859.154
653.902	13959.183
654.030	13876.615
654.158	13787.433
654.287	13823.942
654.415	13821.462
654.543	13796.173
654.671	13710.615
654.799	13746.942
654.927	13682.404
655.055	13649.904
655.183	13667.654
655.312	13657.212
655.440	13597.154
655.568	13593.615
655.696	13624.288
655.824	13566.663
655.952	13528.000
656.080	13463.587
656.208	13474.096
656.337	13503.221
656.465	13638.019
656.593	13460.106
656.721	13462.375
656.849	13519.538
656.977	13284.846
657.105	13331.779
657.233	13355.481
657.362	13368.635
657.490	13338.163
657.618	13265.654
657.746	13249.606
657.874	13168.240
658.002	13144.413
658.130	13096.760
658.258	13101.663
658.387	13043.933
658.515	13051.971
658.643	13004.750
658.771	13066.173
658.899	12957.394
659.027	12978.010
659.155	12940.365
659.283	12908.385
659.412	12922.827
659.540	12889.837
659.668	12894.769
659.796	12957.240
659.924	12864.000
660.052	12945.933
660.180	12830.163
660.308	12899.798
660.437	12862.606
660.565	12804.606
660.693	12702.212
660.821	12889.596
660.949	12670.433
661.077	12697.471
661.205	12799.952
661.333	12655.029
661.462	12616.288
661.590	12702.221
661.718	12582.288
661.846	12561.567
661.974	12550.962
662.102	12554.471
662.230	12502.087
662.358	12419.096
662.487	12482.385
662.615	12455.981
662.743	12453.856
662.871	12413.606
662.999	12317.154
663.127	12316.462
663.255	12303.760
663.383	12420.375
663.512	12239.606
663.640	12269.481
663.768	12267.375
663.896	12219.894
664.024	12208.490
664.152	12177.279
664.280	12238.808
664.408	12140.202
664.537	12117.798
664.665	12154.212
664.793	12099.048
664.921	12064.644
665.049	12122.760
665.177	12025.413
665.305	12026.788
665.433	12079.635
665.562	12165.298
665.690	12025.490
665.818	12125.433
665.946	11900.192
666.074	11903.990
666.202	11884.067
666.330	11847.404
666.458	12242.481
666.587	11849.596
666.715	11844.154
666.843	11810.769
666.971	11811.327
667.099	11814.385
667.227	11831.885
667.355	11833.394
667.483	11759.548
667.612	11767.433
667.740	11725.183
667.868	11678.740
667.996	11649.077
668.124	11733.365
668.252	11766.000
668.380	11608.346
668.508	11620.577
668.637	11596.808
668.765	11621.269
668.893	11618.067
669.021	11471.644
669.149	11554.596
669.277	11442.615
669.405	11562.365
669.533	11523.058
669.662	11411.913
669.790	11398.702
669.918	11403.490
670.046	11557.827
670.174	11334.702
670.302	11290.500
670.430	11262.808
670.558	11299.692
670.687	11419.481
670.815	11194.173
670.943	11211.865
671.071	11120.125
671.199	11103.106
671.327	11115.817
671.455	11090.885
671.583	11059.000
671.712	11018.125
671.840	11041.481
671.968	11166.077
672.096	11109.942
672.224	10861.942
672.352	10856.135
672.480	10822.865
672.608	10838.096
672.737	10802.885
672.865	10705.702
672.993	10732.154
673.121	10692.106
673.249	10651.125
673.377	10608.654
673.505	10585.394
673.633	10607.500
673.762	10508.087
673.890	10525.452
674.018	10528.490
674.146	10444.779
674.274	10421.433
674.402	10442.990
674.530	10397.096
674.658	10333.673
674.787	10299.923
674.915	10406.423
675.043	10253.500
675.171	10225.269
675.299	10179.346
675.427	10128.962
675.555	10116.827
675.683	10106.856
675.812	10035.962
675.940	10024.346
676.068	9934.221
676.196	9981.442
676.324	9893.635
676.452	9821.183
676.580	9815.038
676.708	9808.404
676.837	9773.654
676.965	9843.519
677.093	9868.288
677.221	9716.913
677.349	9625.692
677.477	9714.500
677.605	9581.240
677.733	9545.981
677.862	9520.663
677.990	9503.846
678.118	9548.163
678.246	9429.365
678.374	9492.894
678.502	9380.981
678.630	9338.240
678.758	9321.856
678.887	9427.240
679.015	9205.837
679.143	9206.212
679.271	9165.788
679.399	9163.096
679.527	9165.202
679.655	9195.058
679.783	9072.510
679.912	9001.077
680.040	9192.346
680.168	8994.923
680.296	9015.337
680.424	8968.923
680.552	8918.394
680.680	8911.077
680.808	8824.788
680.937	8778.288
681.065	8879.875
681.193	8770.808
681.321	8739.125
681.449	8796.490
681.577	8743.077
681.705	8710.058
681.833	8722.615
681.962	8617.365
682.090	8610.702
682.218	8585.923
682.346	8594.462
682.474	8557.846
682.602	8513.144
682.730	8539.317
682.858	8483.625
682.987	8495.038
683.115	8452.721
683.243	8428.904
683.371	8433.144
683.499	8331.606
683.627	8398.269
683.755	8357.702
683.883	8320.740
684.012	8340.663
684.140	8260.692
684.268	8255.981
684.396	8301.981
684.524	8240.394
684.652	8254.029
684.780	8223.356
684.908	8182.808
685.037	8212.202
685.165	8184.500
685.293	8214.654
685.421	8150.635
685.549	8113.615
685.677	8083.885
685.805	8125.087
685.933	8041.788
686.062	8059.163
686.190	8006.990
686.318	7984.577
686.446	7956.615
686.574	7901.327
686.702	7975.394
686.830	7896.702
686.958	7971.183
687.087	7856.365
687.215	7841.240
687.343	7815.596
687.471	8014.788
687.599	7734.615
687.727	7731.721
687.855	7712.442
687.983	7678.250
688.112	7704.452
688.240	7675.837
688.368	7722.346
688.496	7621.615
688.624	7582.990
688.752	7744.635
688.880	7565.587
689.008	7550.644
689.137	7529.702
689.265	7478.115
689.393	7464.231
689.521	7452.740
689.649	7545.058
689.777	7459.577
689.905	7522.010
690.033	7340.779
690.162	7348.019
690.290	7381.875
690.418	7294.442
690.546	7350.577
690.674	7322.856
690.802	7288.962
690.930	7253.981
691.058	7228.760
691.187	7157.288
691.315	7127.481
691.443	7123.260
691.571	7134.288
691.699	7085.019
691.827	7062.260
691.955	7051.731
692.083	7027.067
692.212	7019.760
692.340	7009.923
692.468	7013.231
692.596	6970.433
692.724	6920.231
692.852	6966.663
692.980	6928.538
693.108	6925.712
693.237	6839.375
693.365	6807.577
693.493	6773.115
693.621	6794.769
693.749	6722.952
693.877	6791.654
694.005	6668.644
694.133	6681.865
694.262	6736.288
694.390	6603.067
694.518	6612.683
694.646	6596.106
694.774	6531.106
694.902	6517.577
695.030	6544.269
695.158	6496.288
695.287	6481.356
695.415	6453.635
695.543	6444.577
695.671	6353.125
695.799	6487.760
695.927	6368.125
696.055	6376.567
696.183	6288.654
696.312	6462.337
696.440	6285.952
696.568	6286.644
696.696	6199.135
696.824	6147.394
696.952	6152.154
697.080	6153.548
697.208	6076.490
697.337	6074.442
697.465	6079.433
697.593	5987.038
697.721	6097.942
697.849	6000.019
697.977	6009.596
698.105	6043.385
698.233	5969.721
698.362	5886.817
698.490	5978.346
698.618	5841.885
698.746	5807.423
698.874	5886.510
699.002	5832.510
699.130	5813.019
699.258	5790.192
699.387	5688.298
699.515	5747.240
699.643	5736.923
699.771	5807.183
699.899	5672.067
700.027	5637.644
700.155	5675.788
700.283	5547.115
700.412	5540.317
700.540	5598.683
700.668	5645.163
700.796	5491.769
700.924	5570.923
701.052	5526.202
701.180	5483.038
701.308	5394.413
701.437	5394.327
701.565	5373.913
701.693	5410.269
701.821	5565.529
701.949	5289.538
702.077	5300.269
702.205	5355.817
702.333	5284.567
702.462	5234.769
702.590	5275.356
702.718	5179.221
702.846	5361.644
702.974	5134.106
703.102	5134.077
703.230	5159.183
703.358	5076.712
703.487	5080.192
703.615	5052.923
703.743	5013.144
703.871	5034.567
703.999	5005.029
704.127	4978.019
704.255	4928.135
704.383	4959.240
704.512	4996.433
704.640	4958.837
704.768	5004.077
704.896	4865.567
705.024	4794.462
705.152	4842.817
705.280	4876.981
705.408	4768.837
705.537	4757.654
705.665	4760.154
705.793	4737.644
705.921	4728.154
706.049	4672.308
706.177	4685.808
706.305	4623.288
706.433	4672.519
706.562	4637.423
706.690	4629.952
706.818	4620.769
706.946	4549.404
707.074	4537.962
707.202	4495.894
707.330	4495.904
707.458	4480.615
707.587	4435.423
707.715	4480.846
707.843	4457.048
707.971	4480.077
708.099	4384.740
708.227	4379.038
708.355	4357.548
708.483	4351.404
708.612	4336.990
708.740	4293.673
708.868	4288.740
708.996	4322.433
709.124	4307.760
709.252	4279.202
709.380	4269.740
709.508	4230.808
709.637	4232.423
709.765	4191.942
709.893	4229.212
710.021	4154.288
710.149	4227.365
710.277	4108.423
710.405	4121.106
710.533	4100.087
710.662	4078.144
710.790	4178.577
710.918	4039.808
711.046	4107.596
711.174	4035.385
711.302	4066.490
711.430	4013.885
711.558	4059.212
711.687	4001.279
711.815	3958.337
711.943	3942.115
712.071	3948.452
712.199	3946.183
712.327	4003.433
712.455	3883.615
712.583	4032.510
712.712	3924.144
712.840	3911.596
712.968	3847.163
713.096	3830.663
713.224	3830.837
713.352	3816.808
713.480	3765.144
713.608	3783.952
713.737	3731.615
713.865	3784.298
713.993	3775.231
714.121	3743.942
714.249	3707.779
714.377	3687.385
714.505	3679.442
714.633	3678.913
714.762	3683.087
714.890	3649.106
715.018	3637.923
715.146	3655.154
715.274	3609.865
715.402	3607.163
715.530	3573.106
715.658	3620.452
715.787	3580.788
715.915	3656.865
716.043	3546.673
716.171	3648.077
716.299	3510.433
716.427	3563.625
716.555	3483.135
716.683	3470.904
716.812	3468.798
716.940	3453.779
717.068	3455.260
717.196	3564.510
717.324	3432.837
717.452	3411.558
717.580	3472.606
717.708	3394.519
717.837	3382.904
717.965	3411.317
718.093	3359.577
718.221	3405.317
718.349	3406.933
718.477	3319.433
718.605	3416.183
718.733	3326.125
718.862	3336.365
718.990	3292.962
719.118	3333.212
719.246	3263.471
719.374	3245.962
719.502	3274.721
719.630	3352.394
719.758	3220.712
719.887	3193.394
720.015	3240.288
720.143	3257.740
720.271	3134.365
720.399	3195.875
720.527	3155.904
720.655	3214.365
720.783	3120.798
720.912	3095.721
721.040	3099.048
721.168	3111.346
721.296	3058.135
721.424	3064.817
721.552	3039.962
721.680	3095.212
721.808	3057.192
721.937	3025.981
722.065	3065.962
722.193	3005.442
722.321	3011.481
722.449	3005.808
722.577	2950.875
722.705	2940.096
722.833	2947.538
722.962	2960.106
723.090	2911.692
723.218	2911.115
723.346	2955.260
723.474	2884.212
723.602	2872.721
723.730	2834.308
723.858	2828.519
723.987	2842.010
724.115	2818.721
724.243	2849.413
724.371	2793.673
724.499	2796.654
724.627	2771.846
724.755	2765.913
724.883	2857.606
725.012	2907.538
725.140	2768.558
725.268	2704.365
725.396	2772.346
725.524	2822.221
725.652	2679.048
725.780	2792.192
725.908	2661.087
726.037	2668.173
726.165	2665.269
726.293	2623.510
726.421	2644.635
726.549	2650.654
726.677	2621.788
726.805	2583.731
726.933	2600.760
727.062	2578.048
727.190	2539.077
727.318	2518.971
727.446	2528.202
727.574	2513.135
727.702	2496.135
727.830	2549.577
727.958	2530.317
728.087	2572.481
728.215	2606.394
728.343	2484.683
728.471	2498.115
728.599	2618.038
728.727	2441.798
728.855	2455.250
728.983	2428.904
729.112	2442.721
729.240	2442.442
729.368	2414.673
729.496	2436.692
729.624	2428.192
729.752	2378.548
729.880	2369.875
730.008	2353.923
730.137	2392.808
730.265	2362.635
730.393	2470.587
730.521	2455.385
730.649	2355.606
730.777	2326.904
730.905	2364.231
731.033	2316.587
731.162	2386.490
731.290	2376.625
731.418	2340.587
731.546	2331.654
731.674	2323.587
731.802	2323.721
731.930	2344.346
732.058	2310.010
732.187	2290.163
732.315	2317.192
732.443	2323.865
732.571	2293.327
732.699	2272.904
732.827	2293.846
732.955	2286.846
733.083	2262.115
733.212	2268.702
733.340	2255.337
733.468	2268.750
733.596	2237.500
733.724	2228.702
733.852	2233.740
733.980	2207.856
734.108	2228.933
734.237	2231.702
734.365	2211.163
734.493	2192.875
734.621	2205.615
734.749	2206.346
734.877	2176.413
735.005	2183.587
735.133	2197.750
735.262	2179.596
735.390	2147.404
735.518	2158.615
735.646	2152.183
735.774	2153.279
735.902	2163.471
736.030	2153.288
736.158	2141.683
736.287	2155.721
736.415	2139.048
736.543	2108.856
736.671	2115.394
736.799	2101.096
736.927	2105.808
737.055	2112.250
737.183	2080.038
737.312	2074.490
737.440	2078.808
737.568	2073.519
737.696	2077.096
737.824	2065.087
737.952	2286.183
738.080	2045.385
738.208	2054.827
738.337	2037.029
738.465	2054.212
738.593	2013.279
738.721	2011.894
738.849	2031.519
738.977	2013.481
739.105	2028.885
739.233	2014.019
739.362	2001.885
739.490	1994.279
739.618	2002.933
739.746	1997.144
739.874	1962.962
740.002	1989.375
740.130	1949.096
740.258	1957.567
740.387	1971.779
740.515	1974.404
740.643	1935.923
740.771	1947.269
740.899	1928.096
741.027	1921.058
741.155	1926.308
741.283	1920.096
741.412	1948.192
741.540	1921.317
741.668	1906.423
741.796	1914.760
741.924	1889.981
742.052	1890.587
742.180	1892.856
742.308	1852.346
742.437	1881.327
742.565	1871.212
742.693	1863.981
742.821	1869.837
742.949	1846.760
743.077	1819.577
743.205	1844.904
743.333	1831.942
743.462	1836.644
743.590	1810.298
743.718	1822.981
743.846	1806.471
743.974	1842.394
744.102	1806.606
744.230	1790.856
744.358	1799.404
744.487	1782.346
744.615	1770.942
744.743	1787.288
744.871	1761.577
744.999	1769.317
745.127	1760.740
745.255	1740.971
745.383	1750.231
745.512	1731.394
745.640	1725.163
745.768	1735.769
745.896	1727.692
746.024	1715.462
746.152	1721.606
746.280	1699.279
746.408	1705.894
746.537	1694.433
746.665	1701.740
746.793	1687.356
746.921	1687.471
747.049	1685.779
747.177	1672.077
747.305	1687.721
747.433	1671.010
747.562	1651.625
747.690	1668.596
747.818	1645.721
747.946	1643.981
748.074	1629.885
748.202	1638.779
748.330	1621.327
748.458	1623.173
748.587	1622.692
748.715	1619.798
748.843	1603.308
748.971	1594.058
749.099	1615.981
749.227	1598.702
749.355	1613.933
749.483	1569.538
749.612	1609.692
749.740	1588.260
749.868	1579.913
749.996	1565.202
750.124	1583.731
750.252	1560.433
750.380	1553.625
750.508	1563.125
750.637	1547.298
750.765	1544.231
750.893	1536.635
751.021	1534.038
751.149	1544.240
751.277	1524.356
751.405	1502.029
751.533	1536.077
751.662	1501.308
751.790	1499.385
751.918	1498.135
752.046	1484.404
752.174	1478.385
752.302	1469.269
752.430	1463.462
752.558	1475.279
752.687	1469.913
752.815	1461.471
752.943	1463.923
753.071	1443.865
753.199	1459.433
753.327	1464.865
753.455	1431.269
753.583	1423.192
753.712	1428.942
753.840	1433.673
753.968	1423.462
754.096	1419.788
754.224	1422.923
754.352	1393.942
754.480	1410.394
754.608	1395.769
754.737	1401.250
754.865	1395.952
754.993	1392.337
755.121	1382.038
755.249	1363.125
755.377	1350.269
755.505	1363.452
755.633	1350.423
755.762	1347.750
755.890	1360.106
756.018	1344.096
756.146	1333.846
756.274	1319.077
756.402	1322.567
756.530	1341.337
756.658	1324.231
756.787	1303.837
756.915	1299.750
757.043	1293.308
757.171	1298.635
757.299	1303.202
757.427	1277.692
757.555	1285.721
757.683	1282.750
757.812	1276.481
757.940	1265.692
758.068	1273.269
758.196	1260.779
758.324	1245.404
758.452	1266.221
758.580	1251.365
758.708	1245.202
758.837	1255.067
758.965	1250.019
759.093	1232.894
759.221	1211.731
759.349	1214.183
759.477	1211.375
759.605	1203.308
759.733	1221.587
759.862	1199.913
759.990	1196.106
760.118	1188.712
760.246	1199.942
760.374	1194.519
760.502	1194.433
760.630	1173.538
760.758	1166.163
760.887	1170.298
761.015	1160.788
761.143	1167.231
761.271	1157.788
761.399	1154.798
761.527	1160.269
761.655	1159.596
761.783	1127.625
761.912	1133.490
762.040	1139.452
762.168	1121.952
762.296	1115.135
762.424	1125.808
762.552	1125.817
762.680	1096.933
762.808	1122.760
762.937	1103.346
763.065	1089.635
763.193	1094.500
763.321	1078.125
763.449	1071.798
763.577	1063.990
763.705	1083.990
763.833	1071.885
763.962	1073.971
764.090	1057.654
764.218	1050.971
764.346	1041.471
764.474	1046.125
764.602	1040.308
764.730	1044.125
764.858	1027.721
764.987	1035.663
765.115	1025.288
765.243	1015.500
765.371	1021.038
765.499	1018.548
765.627	1010.212
765.755	1010.510
765.883	1014.019
766.012	1006.933
766.140	998.279
766.268	993.058
766.396	996.288
766.524	988.288
766.652	979.606
766.780	977.702
766.908	978.192
767.037	989.029
767.165	970.548
767.293	974.894
767.421	971.846
767.549	949.577
767.677	978.202
767.805	953.096
767.933	955.692
768.062	944.692
768.190	943.058
768.318	947.827
768.446	938.106
768.574	938.135
768.702	947.183
768.830	939.048
768.958	929.510
769.087	933.654
769.215	924.346
769.343	922.942
769.471	932.481
769.599	930.471
769.727	924.904
769.855	903.587
769.983	939.019
770.112	906.913
770.240	898.702
770.368	898.346
770.496	893.740
770.624	897.404
770.752	890.952
770.880	908.500
771.008	887.337
771.137	891.163
771.265	879.413
771.393	871.952
771.521	882.808
771.649	888.202
771.777	909.577
771.905	922.942
772.033	907.894
772.162	863.192
772.290	871.000
772.418	872.490
772.546	855.596
772.674	859.740
772.802	851.221
772.930	855.423
773.058	852.298
773.187	854.356
773.315	847.654
773.443	850.404
773.571	844.279
773.699	833.750
773.827	847.163
773.955	853.029
774.083	842.375
774.212	832.471
774.340	832.913
774.468	820.981
774.596	827.596
774.724	831.010
774.852	834.837
774.980	823.490
775.108	820.317
775.237	813.135
775.365	812.077
775.493	810.183
775.621	805.317
775.749	818.567
775.877	814.260
776.005	815.827
776.133	800.135
776.262	803.817
776.390	803.173
776.518	797.577
776.646	799.990
776.774	788.375
776.902	787.346
777.030	789.885
777.158	784.952
777.287	802.260
777.415	787.577
777.543	787.096
777.671	783.212
777.799	774.173
777.927	779.404
778.055	778.923
778.183	771.971
778.312	766.000
778.440	764.558
778.568	782.394
778.696	771.558
778.824	775.452
778.952	772.721
779.080	758.721
779.208	758.635
779.337	760.567
779.465	755.750
779.593	755.798
779.721	752.058
779.849	748.394
779.977	750.154
780.105	745.625
780.233	746.163
780.362	744.471
780.490	730.510
780.618	737.981
780.746	731.442
780.874	729.587
781.002	729.510
781.130	731.115
781.258	719.798
781.387	729.856
781.515	729.904
781.643	713.442
781.771	719.221
781.899	730.913
782.027	712.433
782.155	710.212
782.283	710.183
782.412	713.337
782.540	713.769
782.668	709.644
782.796	704.327
782.924	717.500
783.052	702.538
783.180	694.654
783.308	698.644
783.437	687.010
783.565	699.596
783.693	696.981
783.821	691.760
783.949	690.942
784.077	688.183
784.205	689.058
784.333	686.683
784.462	680.048
784.590	677.231
784.718	670.567
784.846	676.712
784.974	687.365
785.102	664.933
785.230	666.048
785.358	666.173
785.487	660.433
785.615	662.356
785.743	660.192
785.871	663.365
785.999	662.038
786.127	664.096
786.255	647.731
786.383	643.269
786.512	644.635
786.640	652.029
786.768	635.510
786.896	642.346
787.024	629.192
787.152	644.500
787.280	646.673
787.408	638.471
787.537	647.173
787.665	638.692
787.793	630.087
787.921	626.423
788.049	623.788
788.177	626.231
788.305	614.885
788.433	625.615
788.562	619.856
788.690	615.375
788.818	612.971
788.946	608.452
789.074	602.471
789.202	600.827
789.330	597.385
789.458	611.077
789.587	607.490
789.715	603.596
789.843	602.490
789.971	597.288
790.099	586.490
790.227	589.654
790.355	588.548
790.483	599.510
790.612	583.923
790.740	593.952
790.868	572.692
790.996	594.058
791.124	594.952
791.252	589.087
791.380	577.394
791.508	574.942
791.637	579.567
791.765	561.981
791.893	568.904
792.021	569.385
792.149	560.558
792.277	573.712
792.405	552.500
792.533	564.462
792.662	557.250
792.790	560.077
792.918	562.875
793.046	546.212
793.174	556.173
793.302	544.548
793.430	541.692
793.558	552.212
793.687	542.683
793.815	537.337
793.943	552.462
794.071	532.654
794.199	537.115
794.327	532.260
794.455	542.913
794.583	536.933
794.712	533.721
794.840	523.971
794.968	524.192
795.096	532.962
795.224	510.058
795.352	557.202
795.480	504.750
795.608	511.298
795.737	510.577
795.865	510.654
795.993	517.231
796.121	499.510
796.249	504.135
796.377	506.452
796.505	501.202
796.633	507.115
796.762	489.654
796.890	493.327
797.018	494.375
797.146	497.587
797.274	494.673
797.402	488.106
797.530	483.981
797.658	486.471
797.787	495.519
797.915	485.760
798.043	477.394
798.171	480.865
798.299	471.885
798.427	482.221
798.555	489.462
798.683	464.712
798.812	499.500
798.940	518.154
799.068	497.971
799.196	474.481
799.324	467.269
799.452	454.173
799.580	460.923
799.708	457.269
799.837	458.038
799.965	448.221
800.093	451.183
800.221	447.135
800.349	451.298
800.477	436.933
800.605	435.279
800.733	449.327
800.862	440.779
800.990	433.606
801.118	437.077
801.246	436.538
801.374	443.029
801.502	429.067
801.630	435.510
801.758	437.096
801.887	422.202
802.015	430.106
802.143	418.519
802.271	423.471
802.399	414.875
802.527	411.240
802.655	423.163
802.783	416.962
802.912	412.260
803.040	409.144
803.168	405.779
803.296	417.904
803.424	407.500
803.552	404.692
803.680	415.250
803.808	407.183
803.937	398.769
804.065	406.538
804.193	408.673
804.321	420.558
804.449	409.952
804.577	403.317
804.705	420.231
804.833	396.077
804.962	391.702
805.090	394.471
805.218	387.567
805.346	389.442
805.474	399.019
805.602	394.990
805.730	403.721
805.858	377.317
805.987	383.500
806.115	379.500
806.243	387.846
806.371	378.077
806.499	378.481
806.627	375.288
806.755	369.990
806.883	374.904
807.012	374.808
807.140	381.433
807.268	365.904
807.396	371.510
807.524	364.538
807.652	372.192
807.780	365.808
807.908	365.452
808.037	379.625
808.165	368.385
808.293	356.221
808.421	355.808
808.549	359.798
808.677	356.865
808.805	370.500
808.933	357.260
809.062	353.663
809.190	364.779
809.318	359.538
809.446	350.904
809.574	357.837
809.702	349.115
809.830	339.721
809.958	359.692
810.087	351.606
810.215	338.712
810.343	354.548
810.471	345.385
810.599	338.654
810.727	344.808
810.855	337.010
810.983	339.971
811.112	340.663
811.240	336.808
811.368	336.308
811.496	342.481
811.624	337.029
811.752	331.933
811.880	347.202
812.008	334.462
812.137	340.692
812.265	334.029
812.393	334.673
812.521	320.462
812.649	329.750
812.777	321.375
812.905	333.452
813.033	333.365
813.162	320.212
813.290	319.173
813.418	322.519
813.546	316.096
813.674	320.471
813.802	319.760
813.930	316.106
814.058	312.644
814.187	320.625
814.315	313.962
814.443	310.346
814.571	314.510
814.699	304.933
814.827	313.500
814.955	312.846
815.083	302.952
815.212	311.567
815.340	302.385
815.468	314.346
815.596	299.635
815.724	305.317
815.852	308.327
815.980	301.808
816.108	299.163
816.237	299.702
816.365	310.135
816.493	299.058
816.621	304.087
816.749	294.952
816.877	360.798
817.005	309.212
817.133	302.952
817.262	296.519
817.390	286.279
817.518	300.567
817.646	286.192
817.774	284.846
817.902	285.356
818.030	284.990
818.158	293.683
818.287	286.125
818.415	284.538
818.543	279.538
818.671	286.356
818.799	281.096
818.927	276.067
819.055	307.971
819.183	283.817
819.312	299.067
819.440	281.029
819.568	274.827
819.696	280.942
819.824	275.288
819.952	276.865
820.080	272.981
820.208	276.490
820.337	281.125
820.465	273.077
820.593	270.615
820.721	270.587
820.849	271.923
820.977	269.192
821.105	272.769
821.233	263.029
821.362	274.038
821.490	264.125
821.618	276.385
821.746	280.346
821.874	263.144
822.002	259.817
822.130	261.433
822.258	265.192
822.387	262.413
822.515	265.846
822.643	258.625
822.771	260.885
822.899	264.933
823.027	251.298
823.155	260.981
823.283	270.423
823.412	267.375
823.540	254.587
823.668	248.029
823.796	257.587
823.924	253.212
824.052	254.615
824.180	259.885
824.308	251.356
824.437	270.000
824.565	258.135
824.693	242.846
824.821	248.558
824.949	251.106
825.077	249.721
825.205	241.212
825.333	243.904
825.462	257.279
825.590	243.875
825.718	242.250
825.846	244.981
825.974	244.000
826.102	243.240
826.230	246.731
826.358	250.471
826.487	243.558
826.615	244.913
826.743	235.904
826.871	246.317
826.999	241.788
827.127	242.971
827.255	240.442
827.383	239.038
827.512	236.423
827.640	241.202
827.768	259.760
827.896	233.327
828.024	236.173
828.152	231.452
828.280	236.635
828.408	233.519
828.537	232.817
828.665	231.279
828.793	233.683
828.921	232.452
829.049	235.058
829.177	230.019
829.305	233.654
829.433	223.808
829.562	224.606
829.690	228.798
829.818	234.596
829.946	225.010
830.074	226.798
830.202	227.875
830.330	229.423
830.458	218.731
830.587	234.904
830.715	221.327
830.843	221.231
830.971	227.365
831.099	223.490
831.227	254.250
831.355	218.683
831.483	221.240
831.612	221.106
831.740	214.365
831.868	221.221
831.996	228.144
832.124	219.865
832.252	225.933
832.380	217.183
832.508	218.798
832.637	223.519
832.765	228.337
832.893	223.817
833.021	213.769
833.149	212.087
833.277	214.808
833.405	223.240
833.533	206.538
833.662	214.587
833.790	209.327
833.918	218.385
834.046	209.750
834.174	210.375
834.302	216.635
834.430	207.490
834.558	211.038
834.687	217.712
834.815	213.788
834.943	209.135
835.071	210.808
835.199	209.144
835.327	206.702
835.455	218.375
835.583	205.538
835.712	205.096
835.840	211.500
835.968	204.769
836.096	219.010
836.224	206.846
836.352	207.971
836.480	204.087
836.608	202.231
836.737	206.942
836.865	199.837
836.993	210.462
837.121	215.077
837.249	211.673
837.377	200.615
837.505	195.529
837.633	201.154
837.762	205.548
837.890	203.337
838.018	203.750
838.146	200.327
838.274	199.317
838.402	198.538
838.530	215.846
838.658	204.712
838.787	207.731
838.915	196.567
839.043	207.462
839.171	198.817
839.299	204.779
839.427	220.712
839.555	206.875
839.683	196.154
839.812	197.433
839.940	193.423
840.068	198.337
840.196	222.750
840.324	217.856
840.452	201.481
840.580	197.452
840.708	191.125
840.837	199.798
840.965	196.433
841.093	192.529
841.221	192.337
841.349	193.673
841.477	188.125
841.605	189.433
841.733	194.087
841.862	200.606
841.990	195.404
842.118	190.769
842.246	193.548
842.374	184.510
842.502	198.933
842.630	189.519
842.758	187.721
842.887	197.587
843.015	206.337
843.143	192.067
843.271	193.721
843.399	188.625
843.527	192.385
843.655	184.346
843.783	186.048
843.912	187.577
844.040	183.904
844.168	189.394
844.296	199.952
844.424	194.250
844.552	191.010
844.680	188.788
844.808	182.875
844.937	186.356
845.065	187.760
845.193	202.385
845.321	190.990
845.449	195.029
845.577	187.990
845.705	183.202
845.833	184.385
845.962	190.885
846.090	185.904
846.218	193.808
846.346	191.712
846.474	188.587
846.602	182.308
846.730	185.529
846.858	184.538
846.987	179.587
847.115	193.538
847.243	194.048
847.371	175.769
847.499	181.962
847.627	182.462
847.755	181.740
847.883	192.942
848.012	195.510
848.140	173.846
848.268	180.529
848.396	182.058
848.524	189.750
848.652	179.577
848.780	176.731
848.908	182.750
849.037	184.019
849.165	181.154
849.293	187.856
849.421	180.163
849.549	183.221
849.677	178.856
849.805	191.308
849.933	179.837
850.062	186.346
850.190	181.394
850.318	179.635
850.446	181.385
850.574	179.298
850.702	178.260
850.830	176.423
850.958	177.154
851.087	184.788
851.215	174.173
851.343	180.942
851.471	178.808
851.599	185.548
851.727	189.183
851.855	177.481
851.983	182.327
852.112	176.010
852.240	185.894
852.368	185.712
852.496	177.067
852.624	180.894
852.752	184.433
852.880	181.625
853.008	179.346
853.137	177.606
853.265	183.510
853.393	177.077
853.521	174.221
853.649	184.529
853.777	174.442
853.905	168.269
854.033	173.308
854.162	170.721
854.290	173.615
854.418	189.683
854.546	204.356
854.674	192.558
854.802	177.740
854.930	172.644
855.058	179.971
855.187	173.144
855.315	204.250
855.443	172.394
855.571	172.990
855.699	180.760
855.827	169.673
855.955	171.308
856.083	173.500
856.212	175.048
856.340	176.702
856.468	176.202
856.596	173.654
856.724	178.933
856.852	190.644
856.980	171.827
857.108	167.577
857.237	169.904
857.365	179.538
857.493	177.567
857.621	173.115
857.749	170.567
857.877	169.308
858.005	170.490
858.133	172.337
858.262	166.173
858.390	167.337
858.518	168.250
858.646	179.183
858.774	165.769
858.902	169.375
859.030	174.365
859.158	174.740
859.287	172.144
859.415	175.952
859.543	170.029
859.671	177.173
859.799	179.856
859.927	161.981
860.055	163.731
860.183	162.298
860.312	167.067
860.440	166.885
860.568	160.712
860.696	176.750
860.824	177.125
860.952	165.519
861.080	170.558
861.208	170.683
861.337	168.269
861.465	176.538
861.593	167.356
861.721	174.856
861.849	168.615
861.977	166.596
862.105	169.346
862.233	166.337
862.362	166.913
862.490	166.587
862.618	168.394
862.746	166.067
862.874	170.606
863.002	169.481
863.130	172.538
863.258	172.279
863.387	169.865
863.515	171.615
863.643	176.904
863.771	168.596
863.899	170.038
864.027	173.567
864.155	193.337
864.283	170.510
864.412	164.087
864.540	172.442
864.668	164.240
864.796	165.365
864.924	165.779
865.052	163.327
865.180	180.865
865.308	170.644
865.437	169.202
865.565	161.356
865.693	166.933
865.821	161.779
865.949	184.837
866.077	171.067
866.205	166.827
866.333	169.356
866.462	159.538
866.590	171.327
866.718	169.269
866.846	165.606
866.974	167.221
867.102	163.067
867.230	173.452
867.358	164.913
867.487	171.558
867.615	180.144
867.743	162.500
867.871	173.740
867.999	166.721
868.127	179.779
868.255	180.442
868.383	157.663
868.512	165.731
868.640	168.240
868.768	161.500
868.896	175.846
869.024	163.471
869.152	164.606
869.280	160.981
869.408	164.154
869.537	162.279
869.665	162.673
869.793	164.500
869.921	164.712
870.049	156.837
870.177	164.663
870.305	158.413
870.433	164.192
870.562	165.865
870.690	166.192
870.818	169.837
870.946	161.231
871.074	157.048
871.202	163.644
871.330	158.452
871.458	163.692
871.587	164.144
871.715	163.788
871.843	168.433
871.971	172.231
872.099	155.375
872.227	164.779
872.355	161.394
872.483	162.808
872.612	165.029
872.740	161.250
872.868	161.702
872.996	166.058
873.124	171.923
873.252	163.298
873.380	159.856
873.508	169.385
873.637	167.067
873.765	160.087
873.893	158.721
874.021	161.846
874.149	160.663
874.277	164.519
874.405	167.865
874.533	172.173
874.662	158.654
874.790	170.635
874.918	158.135
875.046	164.163
875.174	163.000
875.302	159.154
875.430	160.413
875.558	165.673
875.687	166.740
875.815	164.942
875.943	163.673
876.071	163.663
876.199	164.625
876.327	164.221
876.455	161.625
876.583	159.404
876.712	169.404
876.840	165.519
876.968	159.288
877.096	163.817
877.224	163.606
877.352	152.087
877.480	164.067
877.608	170.356
877.737	165.260
877.865	156.375
877.993	166.413
878.121	167.375
878.249	159.375
878.377	161.087
878.505	166.125
878.633	165.798
878.762	160.067
878.890	162.029
879.018	169.048
879.146	161.077
879.274	188.260
879.402	164.894
879.530	159.615
879.658	159.654
879.787	160.942
879.915	160.769
880.043	156.904
880.171	194.010
880.299	162.788
880.427	168.663
880.555	156.885
880.683	165.683
880.812	165.096
880.940	158.163
881.068	171.308
881.196	158.394
881.324	156.548
881.452	157.240
881.580	165.750
881.708	170.135
881.837	163.808
881.965	162.942
882.093	157.644
882.221	154.904
882.349	157.106
882.477	157.760
882.605	161.317
882.733	165.452
882.862	159.817
882.990	172.077
883.118	164.933
883.246	169.067
883.374	160.471
883.502	170.413
883.630	165.827
883.758	161.913
883.887	165.000
884.015	160.346
884.143	168.115
884.271	160.692
884.399	154.173
884.527	163.865
884.655	158.452
884.783	162.846
884.912	183.885
885.040	167.548
885.168	157.433
885.296	172.942
885.424	161.942
885.552	161.654
885.680	174.788
885.808	164.952
885.937	168.163
886.065	170.125
886.193	162.452
886.321	159.904
886.449	158.587
886.577	159.769
886.705	172.779
886.833	155.933
886.962	162.654
887.090	162.769
887.218	159.154
887.346	158.875
887.474	159.019
887.602	159.048
887.730	156.010
887.858	156.327
887.987	156.135
888.115	161.240
888.243	157.240
888.371	172.942
888.499	161.923
888.627	158.577
888.755	167.788
888.883	161.663
889.012	164.721
889.140	160.981
889.268	163.462
889.396	153.635
889.524	165.933
889.652	153.548
889.780	155.644
889.908	158.375
890.037	168.413
890.165	158.567
890.293	163.115
890.421	164.462
890.549	150.115
890.677	156.029
890.805	160.548
890.933	157.587
891.062	159.231
891.190	163.769
891.318	157.740
891.446	161.269
891.574	151.317
891.702	156.308
891.830	163.385
891.958	170.933
892.087	164.433
892.215	162.490
892.343	159.856
892.471	162.894
892.599	155.856
892.727	163.548
892.855	180.202
892.983	152.654
893.112	158.971
893.240	167.385
893.368	157.250
893.496	168.327
893.624	163.433
893.752	181.433
893.880	167.548
894.008	162.567
894.137	159.067
894.265	165.673
894.393	159.510
894.521	165.529
894.649	160.510
894.777	153.875
894.905	193.038
895.033	159.663
895.162	158.750
895.290	165.779
895.418	160.596
895.546	191.500
895.674	164.731
895.802	202.067
895.930	164.769
896.058	159.067
896.187	157.615
896.315	158.135
896.443	168.673
896.571	182.740
896.699	156.548
896.827	158.317
896.955	160.644
897.083	163.058
897.212	159.115
897.340	156.894
897.468	161.183
897.596	159.808
897.724	158.019
897.852	157.010
897.980	155.750
898.108	165.587
898.237	160.269
898.365	159.760
898.493	164.038
898.621	160.808
898.749	163.125
898.877	159.731
899.005	159.279
899.133	158.413
899.262	174.692
899.390	160.990
899.518	162.962
899.646	156.990
899.774	155.875
899.902	156.769
900.030	171.712
900.158	161.817
900.287	160.625
900.415	156.462
900.543	161.885
900.671	164.433
900.799	162.250
900.927	158.962
901.055	169.865
901.183	169.135
901.312	167.692
901.440	155.452
901.568	157.144
901.696	161.548
901.824	155.356
901.952	157.519
902.080	164.221
902.208	160.096
902.337	167.904
902.465	154.827
902.593	171.269
902.721	184.144
902.849	180.625
902.977	162.856
903.105	163.837
903.233	161.115
903.362	155.394
903.490	169.538
903.618	163.087
903.746	153.337
903.874	161.231
904.002	158.913
904.130	171.817
904.258	150.096
904.387	166.163
904.515	154.510
904.643	163.038
904.771	158.260
904.899	158.048
905.027	164.096
905.155	159.904
905.283	154.923
905.412	176.394
905.540	162.000
905.668	162.490
905.796	161.144
905.924	160.740
906.052	159.433
906.180	164.356
906.308	158.115
906.437	156.269
906.565	165.500
906.693	168.769
906.821	157.394
906.949	158.769
907.077	158.144
907.205	164.952
907.333	152.413
907.462	159.567
907.590	160.615
907.718	158.087
907.846	167.413
907.974	160.231
908.102	160.337
908.230	162.567
908.358	160.413
908.487	155.356
908.615	169.067
908.743	168.529
908.871	163.510
908.999	158.221
909.127	160.510
909.255	170.260
909.383	157.923
909.512	157.038
909.640	174.808
909.768	161.192
909.896	163.760
910.024	169.154
910.152	167.827
910.280	166.135
910.408	158.558
910.537	157.731
910.665	165.356
910.793	164.019
910.921	165.192
911.049	171.298
911.177	170.048
911.305	163.000
911.433	192.683
911.562	167.635
911.690	168.404
911.818	161.010
911.946	166.462
912.074	170.721
912.202	163.490
912.330	183.808
912.458	159.712
912.587	166.442
912.715	170.096
912.843	178.471
912.971	165.933
913.099	183.846
913.227	175.885
913.355	171.077
913.483	180.375
913.612	176.019
913.740	195.865
913.868	171.510
