sample6h_at_750.00nm_cut_at_1060.50Y_01.dat
19.06.2023
11:09:29
cut middle at Y: 1060.50
top cursor: 1109 down cursor: 1012 mean of: 97 lines , 2560 datapoints
wavelength(nm)	intensity[arb. units]
585.996	826.258
586.124	807.082
586.252	803.948
586.380	803.505
586.508	799.381
586.637	808.216
586.765	812.041
586.893	805.227
587.021	816.361
587.149	814.041
587.277	814.031
587.405	818.134
587.533	816.361
587.662	814.196
587.790	827.577
587.918	822.804
588.046	820.165
588.174	830.237
588.302	829.835
588.430	818.247
588.558	830.278
588.687	823.165
588.815	836.649
588.943	830.742
589.071	828.660
589.199	828.381
589.327	838.773
589.455	834.907
589.583	837.000
589.712	838.773
589.840	844.361
589.968	836.351
590.096	839.959
590.224	842.701
590.352	844.237
590.480	843.722
590.608	846.742
590.737	853.021
590.865	848.010
590.993	843.237
591.121	846.093
591.249	848.866
591.377	848.557
591.505	858.856
591.633	844.619
591.762	860.711
591.890	864.134
592.018	853.216
592.146	850.887
592.274	855.031
592.402	856.948
592.530	847.598
592.658	852.814
592.787	852.804
592.915	854.495
593.043	854.526
593.171	857.289
593.299	870.000
593.427	860.443
593.555	868.227
593.683	855.175
593.812	858.907
593.940	869.588
594.068	859.258
594.196	874.216
594.324	870.093
594.452	872.031
594.580	865.959
594.708	878.959
594.837	873.567
594.965	877.268
595.093	871.485
595.221	866.258
595.349	884.134
595.477	882.928
595.605	879.649
595.733	894.392
595.862	884.412
595.990	888.361
596.118	893.227
596.246	894.588
596.374	889.804
596.502	896.124
596.630	901.330
596.758	900.237
596.887	902.309
597.015	893.784
597.143	890.289
597.271	906.464
597.399	906.557
597.527	901.485
597.655	905.763
597.783	899.948
597.912	900.412
598.040	904.753
598.168	909.732
598.296	906.392
598.424	899.113
598.552	903.722
598.680	900.845
598.808	908.278
598.937	910.134
599.065	903.557
599.193	910.969
599.321	900.969
599.449	911.814
599.577	898.598
599.705	910.186
599.833	904.938
599.962	902.753
600.090	909.082
600.218	906.835
600.346	897.082
600.474	912.742
600.602	913.093
600.730	913.371
600.858	906.371
600.987	908.835
601.115	911.175
601.243	914.825
601.371	915.598
601.499	916.887
601.627	914.887
601.755	919.639
601.883	913.495
602.012	923.464
602.140	923.402
602.268	927.247
602.396	929.113
602.524	929.567
602.652	927.155
602.780	926.691
602.908	937.660
603.037	934.722
603.165	938.732
603.293	945.237
603.421	938.691
603.549	946.309
603.677	951.196
603.805	948.680
603.933	952.526
604.062	945.907
604.190	959.619
604.318	949.351
604.446	960.825
604.574	961.268
604.702	958.670
604.830	962.227
604.958	973.969
605.087	982.351
605.215	976.474
605.343	987.227
605.471	989.876
605.599	985.010
605.727	983.268
605.855	979.959
605.983	979.072
606.112	996.732
606.240	996.588
606.368	981.495
606.496	992.680
606.624	981.928
606.752	986.907
606.880	996.412
607.008	998.289
607.137	1001.588
607.265	991.897
607.393	995.763
607.521	1003.186
607.649	993.186
607.777	999.433
607.905	993.031
608.033	1004.412
608.162	998.278
608.290	993.938
608.418	1016.443
608.546	994.918
608.674	1004.959
608.802	992.619
608.930	1010.082
609.058	994.474
609.187	991.041
609.315	998.856
609.443	999.258
609.571	1000.103
609.699	998.557
609.827	1006.928
609.955	989.082
610.083	996.670
610.212	998.175
610.340	1001.103
610.468	1002.072
610.596	1002.495
610.724	990.722
610.852	1000.175
610.980	1003.825
611.108	1003.557
611.237	993.887
611.365	1006.289
611.493	1004.423
611.621	1000.979
611.749	1007.670
611.877	1005.588
612.005	1014.546
612.133	1013.557
612.262	1001.165
612.390	1019.505
612.518	1008.299
612.646	1010.289
612.774	1010.464
612.902	1014.299
613.030	1017.711
613.158	1027.598
613.287	1033.804
613.415	1022.649
613.543	1018.196
613.671	1033.835
613.799	1027.443
613.927	1024.330
614.055	1029.639
614.183	1038.134
614.312	1029.010
614.440	1038.340
614.568	1040.247
614.696	1038.041
614.824	1045.495
614.952	1042.536
615.080	1049.608
615.208	1036.062
615.337	1055.371
615.465	1034.392
615.593	1051.567
615.721	1055.608
615.849	1054.722
615.977	1063.784
616.105	1054.340
616.233	1048.495
616.362	1058.299
616.490	1047.701
616.618	1062.227
616.746	1057.557
616.874	1067.629
617.002	1067.258
617.130	1067.485
617.258	1069.392
617.387	1061.546
617.515	1063.845
617.643	1064.371
617.771	1070.639
617.899	1062.392
618.027	1061.309
618.155	1064.237
618.283	1064.258
618.412	1069.062
618.540	1068.330
618.668	1066.907
618.796	1069.948
618.924	1076.732
619.052	1073.856
619.180	1072.732
619.308	1074.423
619.437	1067.309
619.565	1073.711
619.693	1059.557
619.821	1081.969
619.949	1070.515
620.077	1084.649
620.205	1082.495
620.333	1083.897
620.462	1078.897
620.590	1088.691
620.718	1079.742
620.846	1079.711
620.974	1091.938
621.102	1093.918
621.230	1076.381
621.358	1084.412
621.487	1084.010
621.615	1093.948
621.743	1090.216
621.871	1088.835
621.999	1082.897
622.127	1088.784
622.255	1096.031
622.383	1082.546
622.512	1094.299
622.640	1094.443
622.768	1095.515
622.896	1077.876
623.024	1083.021
623.152	1098.072
623.280	1086.814
623.408	1106.835
623.537	1100.247
623.665	1093.144
623.793	1097.186
623.921	1092.629
624.049	1098.546
624.177	1095.784
624.305	1096.495
624.433	1101.402
624.562	1095.990
624.690	1090.794
624.818	1095.021
624.946	1097.763
625.074	1092.918
625.202	1104.876
625.330	1089.536
625.458	1097.485
625.587	1095.258
625.715	1100.814
625.843	1082.979
625.971	1089.804
626.099	1090.010
626.227	1097.784
626.355	1093.052
626.483	1104.845
626.612	1097.330
626.740	1093.722
626.868	1095.093
626.996	1096.670
627.124	1097.918
627.252	1086.247
627.380	1093.340
627.508	1094.526
627.637	1091.835
627.765	1088.722
627.893	1089.474
628.021	1096.258
628.149	1095.660
628.277	1097.278
628.405	1099.113
628.533	1095.299
628.662	1093.660
628.790	1099.691
628.918	1100.371
629.046	1096.928
629.174	1093.990
629.302	1106.175
629.430	1094.773
629.558	1093.515
629.687	1101.361
629.815	1094.381
629.943	1100.515
630.071	1103.711
630.199	1114.423
630.327	1100.979
630.455	1102.206
630.583	1114.711
630.712	1110.062
630.840	1105.711
630.968	1111.474
631.096	1115.330
631.224	1106.959
631.352	1113.021
631.480	1115.000
631.608	1111.464
631.737	1108.186
631.865	1120.371
631.993	1119.474
632.121	1112.536
632.249	1119.732
632.377	1121.979
632.505	1113.784
632.633	1106.041
632.762	1115.113
632.890	1117.639
633.018	1116.938
633.146	1103.711
633.274	1115.351
633.402	1105.423
633.530	1114.773
633.658	1114.309
633.787	1100.907
633.915	1110.948
634.043	1108.371
634.171	1111.031
634.299	1117.918
634.427	1107.835
634.555	1117.485
634.683	1106.918
634.812	1103.680
634.940	1112.567
635.068	1102.691
635.196	1100.485
635.324	1106.557
635.452	1110.598
635.580	1101.361
635.708	1103.845
635.837	1099.742
635.965	1100.278
636.093	1090.608
636.221	1095.412
636.349	1092.660
636.477	1085.660
636.605	1092.876
636.733	1083.392
636.862	1074.546
636.990	1089.918
637.118	1089.412
637.246	1083.464
637.374	1072.423
637.502	1080.938
637.630	1080.443
637.758	1072.598
637.887	1083.639
638.015	1067.505
638.143	1080.711
638.271	1075.887
638.399	1066.216
638.527	1063.206
638.655	1061.186
638.783	1077.680
638.912	1074.052
639.040	1061.196
639.168	1058.990
639.296	1061.649
639.424	1062.670
639.552	1053.598
639.680	1058.010
639.808	1054.680
639.937	1054.505
640.065	1064.753
640.193	1059.515
640.321	1049.948
640.449	1060.773
640.577	1059.526
640.705	1048.773
640.833	1056.381
640.962	1061.206
641.090	1055.629
641.218	1054.722
641.346	1054.722
641.474	1051.000
641.602	1043.938
641.730	1057.567
641.858	1061.474
641.987	1052.464
642.115	1051.433
642.243	1059.660
642.371	1063.887
642.499	1051.485
642.627	1058.938
642.755	1063.196
642.883	1061.464
643.012	1053.784
643.140	1059.619
643.268	1057.340
643.396	1057.588
643.524	1040.959
643.652	1056.237
643.780	1043.258
643.908	1048.474
644.037	1059.371
644.165	1062.959
644.293	1055.000
644.421	1049.619
644.549	1055.155
644.677	1061.175
644.805	1058.948
644.933	1053.928
645.062	1059.784
645.190	1052.134
645.318	1047.268
645.446	1056.443
645.574	1061.876
645.702	1048.557
645.830	1065.536
645.958	1058.278
646.087	1054.526
646.215	1052.371
646.343	1063.062
646.471	1053.433
646.599	1051.866
646.727	1050.000
646.855	1049.278
646.983	1047.216
647.112	1062.113
647.240	1064.041
647.368	1041.443
647.496	1047.186
647.624	1048.959
647.752	1043.072
647.880	1048.227
648.008	1033.876
648.137	1025.433
648.265	1037.330
648.393	1030.835
648.521	1038.113
648.649	1030.072
648.777	1040.474
648.905	1026.928
649.033	1018.866
649.162	1025.794
649.290	1022.454
649.418	1020.546
649.546	1018.021
649.674	1024.175
649.802	1025.289
649.930	1008.938
650.058	1008.093
650.187	1008.784
650.315	1012.577
650.443	1005.588
650.571	1011.258
650.699	1016.175
650.827	1011.907
650.955	1007.546
651.083	1006.567
651.212	1001.711
651.340	993.165
651.468	1011.320
651.596	1007.732
651.724	1000.722
651.852	997.639
651.980	980.423
652.108	996.990
652.237	991.948
652.365	988.031
652.493	988.897
652.621	983.206
652.749	999.485
652.877	986.062
653.005	990.443
653.133	987.804
653.262	980.052
653.390	984.732
653.518	978.340
653.646	976.753
653.774	979.711
653.902	981.402
654.030	981.423
654.158	964.361
654.287	979.196
654.415	970.144
654.543	977.371
654.671	968.691
654.799	969.639
654.927	969.186
655.055	961.660
655.183	964.330
655.312	957.619
655.440	952.186
655.568	953.773
655.696	959.526
655.824	964.443
655.952	958.773
656.080	947.052
656.208	960.948
656.337	948.124
656.465	954.443
656.593	946.392
656.721	941.784
656.849	949.918
656.977	942.144
657.105	941.990
657.233	940.557
657.362	941.309
657.490	942.289
657.618	939.144
657.746	935.794
657.874	922.454
658.002	934.010
658.130	933.670
658.258	933.732
658.387	920.979
658.515	918.711
658.643	921.691
658.771	918.443
658.899	919.268
659.027	916.866
659.155	917.670
659.283	908.546
659.412	915.258
659.540	910.979
659.668	913.155
659.796	906.619
659.924	914.742
660.052	908.258
660.180	897.340
660.308	908.907
660.437	902.423
660.565	904.938
660.693	895.763
660.821	905.021
660.949	904.165
661.077	892.237
661.205	895.268
661.333	894.866
661.462	905.402
661.590	893.433
661.718	889.825
661.846	887.021
661.974	896.144
662.102	888.753
662.230	892.515
662.358	884.629
662.487	884.206
662.615	881.619
662.743	893.979
662.871	886.979
662.999	879.031
663.127	886.052
663.255	887.258
663.383	875.237
663.512	885.505
663.640	883.485
663.768	882.433
663.896	884.804
664.024	883.186
664.152	883.588
664.280	876.299
664.408	876.144
664.537	880.856
664.665	882.237
664.793	876.186
664.921	869.979
665.049	872.660
665.177	880.639
665.305	873.546
665.433	868.485
665.562	867.216
665.690	873.278
665.818	863.907
665.946	864.093
666.074	874.021
666.202	862.835
666.330	862.515
666.458	863.371
666.587	863.216
666.715	866.773
666.843	867.928
666.971	863.443
667.099	865.464
667.227	861.773
667.355	858.423
667.483	858.567
667.612	857.031
667.740	855.711
667.868	861.289
667.996	853.433
668.124	853.794
668.252	852.639
668.380	844.763
668.508	856.990
668.637	845.010
668.765	851.010
668.893	844.845
669.021	841.423
669.149	840.897
669.277	837.938
669.405	844.515
669.533	847.134
669.662	840.155
669.790	832.928
669.918	834.021
670.046	828.845
670.174	832.010
670.302	817.794
670.430	825.196
670.558	823.629
670.687	829.763
670.815	821.845
670.943	827.742
671.071	815.082
671.199	819.062
671.327	814.165
671.455	813.794
671.583	821.608
671.712	810.392
671.840	811.443
671.968	809.361
672.096	807.804
672.224	807.835
672.352	800.856
672.480	802.907
672.608	798.814
672.737	798.495
672.865	793.392
672.993	795.227
673.121	792.340
673.249	788.464
673.377	784.062
673.505	790.124
673.633	780.443
673.762	776.464
673.890	785.495
674.018	777.701
674.146	780.443
674.274	774.361
674.402	775.010
674.530	767.557
674.658	769.464
674.787	772.412
674.915	766.124
675.043	765.546
675.171	763.845
675.299	768.423
675.427	757.485
675.555	758.918
675.683	764.340
675.812	751.742
675.940	751.711
676.068	756.031
676.196	745.546
676.324	746.619
676.452	753.526
676.580	743.485
676.708	742.351
676.837	744.619
676.965	737.278
677.093	738.701
677.221	734.278
677.349	730.515
677.477	741.474
677.605	724.887
677.733	733.814
677.862	726.041
677.990	729.351
678.118	727.546
678.246	720.371
678.374	715.887
678.502	726.402
678.630	717.144
678.758	718.144
678.887	723.928
679.015	726.031
679.143	718.691
679.271	717.165
679.399	708.629
679.527	714.639
679.655	710.629
679.783	707.979
679.912	705.773
680.040	706.753
680.168	705.082
680.296	700.825
680.424	702.443
680.552	694.619
680.680	700.000
680.808	701.557
680.937	700.557
681.065	701.825
681.193	696.371
681.321	698.412
681.449	693.938
681.577	690.474
681.705	696.680
681.833	691.196
681.962	683.175
682.090	688.454
682.218	677.784
682.346	690.330
682.474	687.062
682.602	688.938
682.730	685.216
682.858	677.907
682.987	695.474
683.115	681.299
683.243	683.062
683.371	676.165
683.499	670.515
683.627	676.443
683.755	676.588
683.883	675.165
684.012	672.381
684.140	674.340
684.268	669.856
684.396	671.959
684.524	672.856
684.652	673.155
684.780	680.856
684.908	673.691
685.037	655.680
685.165	676.155
685.293	669.072
685.421	668.990
685.549	667.423
685.677	668.536
685.805	661.072
685.933	674.175
686.062	657.062
686.190	662.340
686.318	665.536
686.446	663.485
686.574	661.804
686.702	664.629
686.830	654.804
686.958	666.258
687.087	659.340
687.215	652.309
687.343	656.773
687.471	661.485
687.599	657.814
687.727	654.938
687.855	655.443
687.983	655.289
688.112	659.784
688.240	649.670
688.368	656.649
688.496	645.278
688.624	646.835
688.752	652.268
688.880	641.845
689.008	650.186
689.137	656.845
689.265	647.784
689.393	643.351
689.521	647.701
689.649	641.495
689.777	638.784
689.905	647.381
690.033	639.825
690.162	639.711
690.290	633.691
690.418	633.124
690.546	631.948
690.674	645.474
690.802	630.340
690.930	627.082
691.058	629.402
691.187	628.680
691.315	625.072
691.443	628.371
691.571	628.103
691.699	615.619
691.827	624.134
691.955	618.814
692.083	617.237
692.212	612.588
692.340	620.175
692.468	616.753
692.596	613.433
692.724	612.196
692.852	603.464
692.980	612.577
693.108	609.423
693.237	601.351
693.365	608.948
693.493	601.515
693.621	603.876
693.749	604.454
693.877	597.979
694.005	591.186
694.133	591.330
694.262	595.082
694.390	591.041
694.518	590.680
694.646	589.330
694.774	592.010
694.902	593.052
695.030	596.320
695.158	585.598
695.287	582.361
695.415	590.381
695.543	585.485
695.671	582.402
695.799	575.701
695.927	576.433
696.055	573.804
696.183	582.773
696.312	578.021
696.440	576.794
696.568	576.124
696.696	577.691
696.824	567.825
696.952	570.412
697.080	564.763
697.208	570.928
697.337	571.309
697.465	568.567
697.593	568.474
697.721	567.979
697.849	566.536
697.977	567.887
698.105	566.485
698.233	568.402
698.362	559.299
698.490	566.948
698.618	562.237
698.746	562.670
698.874	558.979
699.002	559.423
699.130	554.753
699.258	557.247
699.387	554.093
699.515	551.454
699.643	558.082
699.771	552.464
699.899	552.598
700.027	547.412
700.155	554.010
700.283	545.814
700.412	539.959
700.540	542.206
700.668	541.103
700.796	549.402
700.924	536.804
701.052	535.000
701.180	532.938
701.308	534.948
701.437	537.340
701.565	537.567
701.693	525.887
701.821	528.577
701.949	525.124
702.077	531.062
702.205	527.268
702.333	528.680
702.462	525.412
702.590	525.907
702.718	521.629
702.846	522.340
702.974	519.093
703.102	522.928
703.230	521.897
703.358	513.567
703.487	510.670
703.615	515.165
703.743	506.515
703.871	509.340
703.999	505.299
704.127	506.062
704.255	505.938
704.383	499.423
704.512	507.588
704.640	498.216
704.768	498.072
704.896	502.041
705.024	498.052
705.152	495.938
705.280	494.443
705.408	494.392
705.537	484.804
705.665	494.093
705.793	486.773
705.921	488.897
706.049	486.474
706.177	486.588
706.305	494.825
706.433	487.412
706.562	482.155
706.690	478.443
706.818	485.072
706.946	478.175
707.074	483.289
707.202	477.155
707.330	479.103
707.458	479.546
707.587	469.938
707.715	472.938
707.843	476.247
707.971	470.021
708.099	476.680
708.227	467.227
708.355	465.907
708.483	466.155
708.612	464.701
708.740	468.701
708.868	458.515
708.996	460.979
709.124	463.464
709.252	459.845
709.380	459.402
709.508	461.567
709.637	455.588
709.765	455.876
709.893	455.773
710.021	458.649
710.149	463.969
710.277	457.598
710.405	457.990
710.533	452.402
710.662	453.897
710.790	455.732
710.918	453.052
711.046	457.784
711.174	450.938
711.302	450.072
711.430	451.505
711.558	453.392
711.687	451.629
711.815	450.619
711.943	446.258
712.071	449.907
712.199	450.052
712.327	446.691
712.455	450.196
712.583	449.412
712.712	450.299
712.840	445.722
712.968	439.082
713.096	441.031
713.224	440.742
713.352	443.546
713.480	441.608
713.608	442.144
713.737	445.402
713.865	435.155
713.993	433.711
714.121	448.330
714.249	438.711
714.377	444.619
714.505	441.856
714.633	435.361
714.762	435.247
714.890	442.371
715.018	442.309
715.146	434.340
715.274	437.969
715.402	427.794
715.530	432.856
715.658	438.969
715.787	437.247
715.915	433.474
716.043	427.794
716.171	431.639
716.299	432.876
716.427	429.320
716.555	435.711
716.683	432.660
716.812	431.289
716.940	432.227
717.068	428.567
717.196	431.206
717.324	423.639
717.452	425.423
717.580	430.144
717.708	428.010
717.837	427.144
717.965	420.639
718.093	429.021
718.221	419.948
718.349	420.031
718.477	420.691
718.605	421.474
718.733	423.144
718.862	421.546
718.990	420.103
719.118	422.103
719.246	416.289
719.374	419.216
719.502	420.557
719.630	412.433
719.758	416.320
719.887	410.247
720.015	419.845
720.143	413.773
720.271	420.041
720.399	418.289
720.527	413.567
720.655	412.464
720.783	410.711
720.912	414.113
721.040	415.670
721.168	411.072
721.296	413.144
721.424	411.320
721.552	407.639
721.680	404.608
721.808	409.351
721.937	405.454
722.065	405.371
722.193	404.577
722.321	401.814
722.449	403.753
722.577	401.742
722.705	397.732
722.833	404.155
722.962	396.845
723.090	395.722
723.218	395.010
723.346	397.062
723.474	396.278
723.602	389.299
723.730	397.928
723.858	394.443
723.987	392.732
724.115	388.340
724.243	389.979
724.371	390.320
724.499	392.866
724.627	387.722
724.755	383.680
724.883	392.526
725.012	388.340
725.140	388.175
725.268	389.722
725.396	382.021
725.524	385.825
725.652	380.495
725.780	381.763
725.908	382.619
726.037	381.041
726.165	377.691
726.293	376.351
726.421	375.804
726.549	386.165
726.677	381.299
726.805	377.928
726.933	377.258
727.062	374.505
727.190	372.309
727.318	376.454
727.446	372.247
727.574	375.309
727.702	370.258
727.830	376.433
727.958	378.845
728.087	377.320
728.215	372.454
728.343	373.629
728.471	372.443
728.599	366.464
728.727	370.887
728.855	368.144
728.983	371.536
729.112	370.371
729.240	367.845
729.368	366.134
729.496	369.134
729.624	369.969
729.752	368.598
729.880	373.268
730.008	368.887
730.137	363.000
730.265	362.351
730.393	363.402
730.521	362.649
730.649	361.845
730.777	365.722
730.905	364.010
731.033	365.928
731.162	358.845
731.290	362.031
731.418	365.062
731.546	357.175
731.674	359.536
731.802	356.866
731.930	360.753
732.058	358.021
732.187	365.918
732.315	358.165
732.443	362.412
732.571	356.701
732.699	360.268
732.827	355.247
732.955	359.258
733.083	358.196
733.212	360.062
733.340	360.856
733.468	361.701
733.596	359.639
733.724	356.402
733.852	353.144
733.980	352.794
734.108	363.072
734.237	361.639
734.365	353.588
734.493	358.031
734.621	359.691
734.749	361.680
734.877	355.381
735.005	360.433
735.133	358.464
735.262	357.464
735.390	358.299
735.518	354.278
735.646	352.845
735.774	355.010
735.902	355.866
736.030	355.649
736.158	355.959
736.287	356.474
736.415	355.103
736.543	357.742
736.671	351.753
736.799	354.577
736.927	352.031
737.055	352.887
737.183	355.268
737.312	353.557
737.440	357.474
737.568	356.515
737.696	354.062
737.824	349.557
737.952	349.052
738.080	353.814
738.208	351.691
738.337	351.021
738.465	351.052
738.593	352.175
738.721	349.845
738.849	347.763
738.977	350.464
739.105	353.660
739.233	351.062
739.362	347.649
739.490	348.588
739.618	344.134
739.746	350.680
739.874	352.680
740.002	349.155
740.130	347.361
740.258	352.309
740.387	352.124
740.515	355.505
740.643	352.258
740.771	345.124
740.899	348.268
741.027	351.701
741.155	341.814
741.283	351.423
741.412	346.660
741.540	348.526
741.668	345.763
741.796	346.536
741.924	343.216
742.052	345.928
742.180	346.959
742.308	347.412
742.437	345.546
742.565	345.557
742.693	341.907
742.821	344.464
742.949	345.124
743.077	344.392
743.205	343.557
743.333	344.093
743.462	339.206
743.590	342.082
743.718	337.196
743.846	337.979
743.974	340.773
744.102	337.010
744.230	344.423
744.358	341.536
744.487	341.464
744.615	330.825
744.743	335.691
744.871	332.216
744.999	334.144
745.127	334.433
745.255	333.454
745.383	336.443
745.512	337.113
745.640	333.258
745.768	332.804
745.896	335.701
746.024	334.258
746.152	333.742
746.280	331.670
746.408	331.443
746.537	339.103
746.665	337.959
746.793	328.392
746.921	335.845
747.049	329.113
747.177	328.557
747.305	327.330
747.433	326.526
747.562	328.062
747.690	326.526
747.818	329.423
747.946	330.773
748.074	327.485
748.202	325.351
748.330	327.144
748.458	326.918
748.587	323.845
748.715	324.784
748.843	327.021
748.971	328.639
749.099	323.722
749.227	322.216
749.355	322.763
749.483	323.546
749.612	318.784
749.740	317.814
749.868	326.938
749.996	320.330
750.124	323.928
750.252	321.144
750.380	322.062
750.508	319.856
750.637	317.990
750.765	319.474
750.893	320.567
751.021	317.753
751.149	320.299
751.277	318.175
751.405	316.928
751.533	316.196
751.662	323.505
751.790	317.557
751.918	319.959
752.046	313.515
752.174	314.196
752.302	309.711
752.430	314.268
752.558	310.289
752.687	309.010
752.815	318.433
752.943	312.443
753.071	310.825
753.199	315.165
753.327	312.361
753.455	309.588
753.583	314.278
753.712	309.289
753.840	309.144
753.968	305.680
754.096	306.454
754.224	306.113
754.352	302.278
754.480	307.186
754.608	309.536
754.737	304.979
754.865	309.402
754.993	303.866
755.121	303.763
755.249	301.825
755.377	299.299
755.505	305.247
755.633	305.474
755.762	303.588
755.890	300.938
756.018	299.155
756.146	295.588
756.274	305.093
756.402	300.330
756.530	296.856
756.658	301.165
756.787	296.495
756.915	297.505
757.043	295.113
757.171	298.722
757.299	294.722
757.427	294.567
757.555	292.784
757.683	294.763
757.812	294.536
757.940	289.289
758.068	292.155
758.196	291.330
758.324	290.639
758.452	294.990
758.580	284.887
758.708	290.093
758.837	285.629
758.965	281.577
759.093	280.845
759.221	286.845
759.349	286.979
759.477	285.258
759.605	283.227
759.733	281.753
759.862	285.268
759.990	278.165
760.118	281.031
760.246	277.124
760.374	279.392
760.502	274.763
760.630	273.691
760.758	274.258
760.887	274.629
761.015	269.402
761.143	275.546
761.271	268.443
761.399	269.340
761.527	268.701
761.655	272.474
761.783	267.876
761.912	270.381
762.040	259.155
762.168	267.464
762.296	262.196
762.424	268.742
762.552	261.258
762.680	262.711
762.808	260.876
762.937	263.320
763.065	259.165
763.193	256.619
763.321	257.546
763.449	259.515
763.577	253.402
763.705	254.402
763.833	256.144
763.962	256.887
764.090	256.969
764.218	251.113
764.346	251.959
764.474	255.784
764.602	251.093
764.730	246.412
764.858	244.320
764.987	247.567
765.115	248.392
765.243	255.330
765.371	247.227
765.499	247.443
765.627	248.835
765.755	248.866
765.883	243.485
766.012	246.763
766.140	245.134
766.268	247.381
766.396	244.918
766.524	245.340
766.652	241.165
766.780	243.052
766.908	241.649
767.037	241.155
767.165	244.392
767.293	243.082
767.421	244.268
767.549	239.216
767.677	245.186
767.805	241.330
767.933	242.247
768.062	243.443
768.190	241.928
768.318	249.124
768.446	240.526
768.574	238.619
768.702	239.660
768.830	242.485
768.958	239.938
769.087	244.701
769.215	237.000
769.343	243.165
769.471	239.649
769.599	239.082
769.727	236.237
769.855	242.711
769.983	239.948
770.112	239.412
770.240	239.928
770.368	237.763
770.496	238.000
770.624	238.485
770.752	237.763
770.880	237.278
771.008	237.052
771.137	232.835
771.265	233.711
771.393	237.103
771.521	236.959
771.649	234.206
771.777	236.722
771.905	232.897
772.033	239.454
772.162	234.361
772.290	236.175
772.418	231.639
772.546	231.227
772.674	236.959
772.802	232.515
772.930	231.206
773.058	232.722
773.187	231.082
773.315	234.206
773.443	232.959
773.571	230.825
773.699	230.175
773.827	230.165
773.955	232.732
774.083	233.320
774.212	232.361
774.340	231.093
774.468	232.062
774.596	225.990
774.724	230.773
774.852	229.412
774.980	226.691
775.108	227.340
775.237	230.196
775.365	226.536
775.493	231.464
775.621	229.330
775.749	226.474
775.877	229.103
776.005	225.577
776.133	229.247
776.262	231.742
776.390	223.887
776.518	221.990
776.646	224.979
776.774	228.660
776.902	226.619
777.030	221.784
777.158	227.268
777.287	220.907
777.415	224.381
777.543	221.691
777.671	221.588
777.799	221.423
777.927	223.320
778.055	226.660
778.183	225.144
778.312	222.196
778.440	220.598
778.568	221.474
778.696	217.402
778.824	221.546
778.952	217.979
779.080	217.227
779.208	214.309
779.337	218.082
779.465	222.072
779.593	217.680
779.721	222.041
779.849	215.876
779.977	218.052
780.105	216.763
780.233	216.876
780.362	211.773
780.490	215.361
780.618	211.619
780.746	214.113
780.874	213.959
781.002	212.309
781.130	210.577
781.258	209.443
781.387	210.299
781.515	214.423
781.643	206.784
781.771	209.062
781.899	209.186
782.027	206.907
782.155	208.670
782.283	204.814
782.412	206.979
782.540	208.258
782.668	205.474
782.796	206.732
782.924	208.144
783.052	201.928
783.180	206.485
783.308	204.990
783.437	206.856
783.565	204.907
783.693	207.701
783.821	206.052
783.949	202.423
784.077	200.948
784.205	200.258
784.333	201.546
784.462	202.784
784.590	207.247
784.718	196.701
784.846	200.608
784.974	199.639
785.102	199.144
785.230	197.990
785.358	195.000
785.487	197.546
785.615	198.557
785.743	195.155
785.871	194.990
785.999	196.515
786.127	196.423
786.255	196.351
786.383	196.361
786.512	195.124
786.640	193.227
786.768	194.948
786.896	192.629
787.024	193.670
787.152	190.711
787.280	190.351
787.408	196.598
787.537	192.907
787.665	196.196
787.793	191.134
787.921	193.588
788.049	191.990
788.177	189.144
788.305	191.814
788.433	189.423
788.562	186.412
788.690	186.804
788.818	186.340
788.946	185.680
789.074	186.959
789.202	189.619
789.330	189.021
789.458	187.031
789.587	187.351
789.715	184.948
789.843	183.206
789.971	186.918
790.099	186.577
790.227	185.443
790.355	182.639
790.483	181.619
790.612	182.773
790.740	182.649
790.868	183.330
790.996	183.938
791.124	184.124
791.252	179.856
791.380	184.753
791.508	177.165
791.637	180.485
791.765	178.144
791.893	176.227
792.021	177.660
792.149	176.773
792.277	175.680
792.405	179.041
792.533	179.732
792.662	176.454
792.790	178.546
792.918	176.495
793.046	171.969
793.174	174.907
793.302	174.515
793.430	174.041
793.558	175.866
793.687	173.082
793.815	174.701
793.943	174.361
794.071	172.268
794.199	169.206
794.327	168.155
794.455	170.845
794.583	169.124
794.712	172.557
794.840	168.670
794.968	167.454
795.096	166.155
795.224	169.495
795.352	165.454
795.480	163.619
795.608	166.649
795.737	166.041
795.865	163.134
795.993	164.423
796.121	166.031
796.249	163.361
796.377	166.000
796.505	161.082
796.633	167.711
796.762	164.021
796.890	166.907
797.018	163.031
797.146	161.216
797.274	160.216
797.402	161.381
797.530	160.598
797.658	163.186
797.787	160.299
797.915	163.505
798.043	159.144
798.171	159.670
798.299	157.979
798.427	157.165
798.555	155.557
798.683	155.340
798.812	159.928
798.940	156.052
799.068	155.485
799.196	160.433
799.324	155.691
799.452	155.052
799.580	155.175
799.708	156.454
799.837	155.124
799.965	152.485
800.093	153.505
800.221	157.701
800.349	152.381
800.477	151.691
800.605	152.206
800.733	150.464
800.862	152.021
800.990	153.938
801.118	153.639
801.246	149.175
801.374	151.443
801.502	150.546
801.630	149.052
801.758	150.505
801.887	148.186
802.015	147.464
802.143	149.082
802.271	151.227
802.399	149.000
802.527	147.515
802.655	148.340
802.783	145.990
802.912	146.412
803.040	146.814
803.168	146.113
803.296	148.814
803.424	146.072
803.552	142.979
803.680	145.814
803.808	145.010
803.937	143.381
804.065	144.660
804.193	141.938
804.321	142.701
804.449	140.649
804.577	142.340
804.705	145.928
804.833	142.990
804.962	139.629
805.090	140.330
805.218	141.794
805.346	142.247
805.474	141.103
805.602	141.845
805.730	139.454
805.858	141.701
805.987	141.825
806.115	141.278
806.243	138.866
806.371	136.485
806.499	138.454
806.627	138.485
806.755	138.866
806.883	138.763
807.012	137.392
807.140	140.093
807.268	135.546
807.396	139.113
807.524	135.258
807.652	136.227
807.780	137.052
807.908	135.969
808.037	133.979
808.165	135.742
808.293	134.608
808.421	133.567
808.549	136.505
808.677	132.990
808.805	135.361
808.933	134.876
809.062	133.010
809.190	133.320
809.318	135.082
809.446	135.062
809.574	131.351
809.702	134.526
809.830	132.474
809.958	133.278
810.087	131.784
810.215	134.052
810.343	134.825
810.471	135.165
810.599	131.155
810.727	134.598
810.855	129.206
810.983	132.041
811.112	131.268
811.240	128.186
811.368	129.361
811.496	132.567
811.624	129.804
811.752	130.691
811.880	130.639
812.008	126.804
812.137	130.402
812.265	128.381
812.393	128.299
812.521	127.515
812.649	126.701
812.777	129.041
812.905	126.804
813.033	128.021
813.162	127.072
813.290	128.041
813.418	125.866
813.546	127.165
813.674	126.784
813.802	128.567
813.930	126.165
814.058	125.093
814.187	126.258
814.315	126.041
814.443	126.670
814.571	123.330
814.699	127.330
814.827	126.794
814.955	124.887
815.083	126.474
815.212	125.299
815.340	124.144
815.468	124.959
815.596	124.742
815.724	122.990
815.852	122.990
815.980	120.299
816.108	122.515
816.237	122.309
816.365	122.155
816.493	120.876
816.621	121.330
816.749	122.299
816.877	121.155
817.005	122.515
817.133	121.670
817.262	119.639
817.390	123.175
817.518	122.351
817.646	122.701
817.774	120.186
817.902	121.381
818.030	120.361
818.158	122.144
818.287	121.155
818.415	119.010
818.543	120.155
818.671	121.082
818.799	119.258
818.927	119.206
819.055	119.722
819.183	120.536
819.312	117.969
819.440	119.041
819.568	118.691
819.696	118.825
819.824	118.732
819.952	117.753
820.080	115.175
820.208	116.845
820.337	118.629
820.465	117.041
820.593	116.608
820.721	117.340
820.849	116.186
820.977	115.031
821.105	117.897
821.233	115.660
821.362	116.763
821.490	115.577
821.618	114.567
821.746	114.990
821.874	113.361
822.002	114.526
822.130	115.505
822.258	112.588
822.387	113.835
822.515	114.835
822.643	113.670
822.771	110.515
822.899	115.155
823.027	116.206
823.155	112.289
823.283	112.598
823.412	115.897
823.540	113.835
823.668	111.443
823.796	112.722
823.924	113.103
824.052	113.206
824.180	111.268
824.308	112.526
824.437	112.340
824.565	112.577
824.693	112.371
824.821	112.165
824.949	112.299
825.077	112.660
825.205	111.680
825.333	111.247
825.462	111.639
825.590	111.021
825.718	110.845
825.846	112.186
825.974	112.392
826.102	111.381
826.230	110.412
826.358	109.897
826.487	110.784
826.615	108.845
826.743	109.804
826.871	110.763
826.999	110.629
827.127	110.979
827.255	108.742
827.383	108.938
827.512	110.000
827.640	109.722
827.768	109.660
827.896	109.165
828.024	109.381
828.152	109.278
828.280	110.000
828.408	111.093
828.537	109.608
828.665	108.649
828.793	108.742
828.921	109.515
829.049	109.454
829.177	109.031
829.305	109.031
829.433	108.598
829.562	107.454
829.690	106.794
829.818	107.753
829.946	107.278
830.074	106.732
830.202	107.959
830.330	106.402
830.458	108.031
830.587	108.165
830.715	106.711
830.843	106.330
830.971	106.979
831.099	106.969
831.227	107.928
831.355	107.649
831.483	109.052
831.612	106.907
831.740	107.165
831.868	107.577
831.996	107.464
832.124	107.907
832.252	107.536
832.380	106.608
832.508	106.227
832.637	106.825
832.765	107.402
832.893	107.381
833.021	107.052
833.149	106.134
833.277	106.474
833.405	106.701
833.533	106.103
833.662	105.433
833.790	107.144
833.918	106.598
834.046	106.258
834.174	106.701
834.302	106.546
834.430	105.165
834.558	104.856
834.687	106.206
834.815	104.175
834.943	105.381
835.071	105.371
835.199	105.031
835.327	105.567
835.455	105.392
835.583	106.113
835.712	105.536
835.840	104.629
835.968	105.113
836.096	103.701
836.224	104.876
836.352	105.588
836.480	105.464
836.608	105.588
836.737	105.041
836.865	104.526
836.993	103.969
837.121	107.093
837.249	105.186
837.377	104.381
837.505	104.320
837.633	103.340
837.762	104.082
837.890	103.000
838.018	102.814
838.146	104.268
838.274	103.423
838.402	103.691
838.530	103.814
838.658	102.825
838.787	103.237
838.915	103.588
839.043	104.103
839.171	103.464
839.299	103.629
839.427	102.660
839.555	105.031
839.683	104.773
839.812	104.598
839.940	103.598
840.068	103.196
840.196	104.763
840.324	103.835
840.452	103.464
840.580	102.649
840.708	104.144
840.837	103.598
840.965	103.866
841.093	104.072
841.221	104.454
841.349	104.423
841.477	103.784
841.605	103.165
841.733	102.361
841.862	104.392
841.990	103.124
842.118	102.763
842.246	100.577
842.374	102.289
842.502	102.928
842.630	102.598
842.758	103.113
842.887	102.505
843.015	103.969
843.143	102.103
843.271	102.165
843.399	102.928
843.527	101.969
843.655	102.371
843.783	102.835
843.912	101.763
844.040	102.948
844.168	102.381
844.296	102.619
844.424	102.773
844.552	102.526
844.680	102.495
844.808	102.763
844.937	101.784
845.065	102.278
845.193	101.866
845.321	101.021
845.449	102.237
845.577	102.258
845.705	101.505
845.833	103.124
845.962	102.753
846.090	101.247
846.218	101.423
846.346	102.113
846.474	100.299
846.602	100.825
846.730	102.196
846.858	101.691
846.987	100.371
847.115	102.794
847.243	102.680
847.371	102.660
847.499	100.722
847.627	101.340
847.755	100.660
847.883	101.000
848.012	101.485
848.140	101.361
848.268	101.732
848.396	100.825
848.524	102.361
848.652	103.340
848.780	100.289
848.908	102.237
849.037	102.351
849.165	102.186
849.293	100.753
849.421	101.206
849.549	101.340
849.677	100.320
849.805	101.969
849.933	101.454
850.062	100.701
850.190	100.278
850.318	100.186
850.446	101.835
850.574	100.052
850.702	101.052
850.830	99.639
850.958	100.526
851.087	101.443
851.215	100.474
851.343	100.155
851.471	98.918
851.599	100.505
851.727	101.588
851.855	100.619
851.983	100.103
852.112	100.505
852.240	101.474
852.368	101.340
852.496	99.031
852.624	99.753
852.752	98.897
852.880	100.443
853.008	99.608
853.137	101.103
853.265	100.000
853.393	100.155
853.521	99.856
853.649	100.897
853.777	100.773
853.905	100.845
854.033	99.371
854.162	100.835
854.290	101.216
854.418	99.639
854.546	99.660
854.674	99.784
854.802	98.845
854.930	100.021
855.058	99.959
855.187	99.732
855.315	99.258
855.443	100.649
855.571	100.990
855.699	100.237
855.827	98.392
855.955	99.938
856.083	98.732
856.212	100.206
856.340	100.866
856.468	100.082
856.596	98.701
856.724	99.732
856.852	99.309
856.980	98.082
857.108	99.845
857.237	99.938
857.365	98.825
857.493	100.691
857.621	99.773
857.749	100.619
857.877	99.175
858.005	101.206
858.133	99.670
858.262	99.835
858.390	101.546
858.518	100.268
858.646	100.165
858.774	101.629
858.902	100.278
859.030	99.278
859.158	99.536
859.287	99.742
859.415	99.680
859.543	99.711
859.671	99.464
859.799	99.526
859.927	99.330
860.055	100.464
860.183	99.536
860.312	99.289
860.440	99.351
860.568	99.598
860.696	100.278
860.824	100.876
860.952	99.598
861.080	99.938
861.208	99.753
861.337	98.722
861.465	99.247
861.593	100.639
861.721	100.268
861.849	99.278
861.977	99.773
862.105	99.979
862.233	99.155
862.362	99.608
862.490	99.289
862.618	100.608
862.746	99.381
862.874	101.299
863.002	99.711
863.130	99.258
863.258	100.763
863.387	99.340
863.515	100.876
863.643	99.196
863.771	98.804
863.899	99.804
864.027	101.000
864.155	99.536
864.283	98.938
864.412	101.309
864.540	99.454
864.668	99.309
864.796	100.763
864.924	100.392
865.052	99.330
865.180	99.773
865.308	99.175
865.437	99.227
865.565	99.969
865.693	99.165
865.821	98.814
865.949	99.495
866.077	100.052
866.205	98.072
866.333	99.289
866.462	98.309
866.590	99.907
866.718	100.186
866.846	100.144
866.974	100.371
867.102	98.866
867.230	98.505
867.358	97.928
867.487	99.258
867.615	98.361
867.743	100.340
867.871	100.866
867.999	100.093
868.127	99.412
868.255	101.041
868.383	99.753
868.512	100.175
868.640	99.959
868.768	99.835
868.896	99.330
869.024	99.990
869.152	98.835
869.280	100.454
869.408	99.742
869.537	99.794
869.665	99.557
869.793	98.835
869.921	99.763
870.049	100.010
870.177	99.969
870.305	100.433
870.433	101.588
870.562	98.629
870.690	99.237
870.818	98.701
870.946	100.773
871.074	98.742
871.202	98.320
871.330	100.196
871.458	99.990
871.587	99.103
871.715	97.784
871.843	99.598
871.971	99.773
872.099	97.546
872.227	99.784
872.355	98.227
872.483	98.680
872.612	100.495
872.740	98.784
872.868	98.082
872.996	98.361
873.124	99.062
873.252	99.845
873.380	99.423
873.508	99.887
873.637	99.680
873.765	99.155
873.893	99.330
874.021	100.021
874.149	99.948
874.277	99.433
874.405	100.237
874.533	100.557
874.662	99.186
874.790	98.258
874.918	99.351
875.046	98.412
875.174	97.876
875.302	100.423
875.430	100.825
875.558	97.629
875.687	99.742
875.815	99.753
875.943	98.505
876.071	100.103
876.199	100.206
876.327	98.732
876.455	99.711
876.583	99.124
876.712	99.680
876.840	99.124
876.968	99.969
877.096	99.701
877.224	99.732
877.352	98.052
877.480	98.732
877.608	99.320
877.737	98.948
877.865	98.041
877.993	98.495
878.121	100.072
878.249	100.856
878.377	98.887
878.505	97.784
878.633	99.835
878.762	101.247
878.890	99.113
879.018	98.753
879.146	100.113
879.274	99.134
879.402	100.742
879.530	99.216
879.658	100.402
879.787	99.464
879.915	98.680
880.043	99.918
880.171	99.155
880.299	97.423
880.427	99.371
880.555	99.845
880.683	99.371
880.812	99.856
880.940	98.598
881.068	99.546
881.196	99.309
881.324	99.041
881.452	99.082
881.580	99.381
881.708	98.969
881.837	99.598
881.965	98.351
882.093	99.598
882.221	99.402
882.349	98.485
882.477	99.629
882.605	100.928
882.733	99.062
882.862	100.309
882.990	99.299
883.118	100.093
883.246	99.814
883.374	98.814
883.502	98.546
883.630	101.041
883.758	100.258
883.887	99.918
884.015	99.835
884.143	100.082
884.271	99.670
884.399	99.753
884.527	98.876
884.655	99.278
884.783	100.701
884.912	99.691
885.040	99.113
885.168	98.866
885.296	99.918
885.424	99.577
885.552	98.928
885.680	99.804
885.808	100.093
885.937	100.206
886.065	98.495
886.193	98.701
886.321	99.103
886.449	100.536
886.577	100.299
886.705	99.701
886.833	99.072
886.962	100.433
887.090	100.711
887.218	99.979
887.346	98.402
887.474	100.144
887.602	100.918
887.730	98.835
887.858	99.928
887.987	98.557
888.115	99.010
888.243	100.000
888.371	99.887
888.499	100.443
888.627	99.433
888.755	98.433
888.883	99.639
889.012	99.072
889.140	100.144
889.268	98.866
889.396	99.330
889.524	99.979
889.652	99.155
889.780	98.567
889.908	98.959
890.037	99.505
890.165	99.546
890.293	99.608
890.421	99.649
890.549	99.227
890.677	97.804
890.805	100.536
890.933	99.351
891.062	98.784
891.190	98.577
891.318	101.742
891.446	99.969
891.574	100.082
891.702	98.546
891.830	99.887
891.958	99.526
892.087	99.784
892.215	100.876
892.343	100.392
892.471	99.887
892.599	100.454
892.727	101.649
892.855	100.938
892.983	100.237
893.112	98.866
893.240	98.897
893.368	100.742
893.496	100.938
893.624	100.165
893.752	100.711
893.880	99.423
894.008	100.155
894.137	99.763
894.265	100.278
894.393	99.351
894.521	100.649
894.649	100.134
894.777	100.134
894.905	99.196
895.033	102.196
895.162	100.082
895.290	98.887
895.418	101.031
895.546	100.546
895.674	99.784
895.802	98.897
895.930	98.928
896.058	99.258
896.187	99.536
896.315	101.186
896.443	99.371
896.571	100.866
896.699	101.567
896.827	99.907
896.955	99.959
897.083	99.907
897.212	100.907
897.340	99.773
897.468	99.959
897.596	99.423
897.724	99.010
897.852	98.897
897.980	99.536
898.108	99.206
898.237	98.629
898.365	98.742
898.493	99.557
898.621	100.454
898.749	99.330
898.877	99.856
899.005	99.216
899.133	101.041
899.262	99.392
899.390	99.485
899.518	99.196
899.646	100.165
899.774	100.866
899.902	100.443
900.030	100.093
900.158	99.041
900.287	99.165
900.415	100.351
900.543	100.175
900.671	100.825
900.799	100.814
900.927	99.000
901.055	98.814
901.183	100.577
901.312	101.041
901.440	100.784
901.568	99.835
901.696	100.371
901.824	99.938
901.952	101.495
902.080	99.103
902.208	98.928
902.337	100.526
902.465	99.691
902.593	101.258
902.721	100.649
902.849	100.918
902.977	99.907
903.105	100.773
903.233	100.082
903.362	101.680
903.490	98.969
903.618	99.247
903.746	99.639
903.874	100.289
904.002	100.371
904.130	99.351
904.258	99.794
904.387	100.567
904.515	100.340
904.643	101.680
904.771	101.206
904.899	99.237
905.027	99.907
905.155	98.598
905.283	100.629
905.412	100.526
905.540	99.784
905.668	98.546
905.796	98.351
905.924	99.691
906.052	100.670
906.180	100.711
906.308	98.165
906.437	98.732
906.565	101.567
906.693	99.557
906.821	98.082
906.949	99.278
907.077	99.113
907.205	100.969
907.333	99.969
907.462	100.887
907.590	99.835
907.718	99.268
907.846	100.763
907.974	101.165
908.102	100.948
908.230	99.206
908.358	99.825
908.487	99.216
908.615	99.454
908.743	99.670
908.871	101.794
908.999	100.433
909.127	99.897
909.255	99.392
909.383	98.948
909.512	100.093
909.640	100.247
909.768	100.763
909.896	100.773
910.024	100.381
910.152	102.773
910.280	100.392
910.408	101.495
910.537	102.031
910.665	99.856
910.793	101.113
910.921	100.320
911.049	100.351
911.177	99.402
911.305	100.887
911.433	102.258
911.562	100.402
911.690	100.660
911.818	99.979
911.946	100.464
912.074	100.753
912.202	100.258
912.330	99.845
912.458	101.546
912.587	100.619
912.715	101.227
912.843	100.113
912.971	101.381
913.099	100.289
913.227	101.639
913.355	102.381
913.483	101.546
913.612	101.711
913.740	100.979
913.868	99.887
