70_120_0_Pol_at_750.00nm_cut_at_1179.00Y_01.dat
03.07.2023
11:11:34
cut middle at Y: 1179.00
top cursor: 1231 down cursor: 1127 mean of: 104 lines , 2560 datapoints
wavelength(nm)	intensity[arb. units]
585.996	10440.404
586.124	10296.615
586.252	10265.106
586.380	10306.067
586.508	10296.692
586.637	10410.635
586.765	10359.596
586.893	10384.067
587.021	10455.298
587.149	10441.558
587.277	10439.240
587.405	10461.481
587.533	10475.923
587.662	10538.231
587.790	10507.654
587.918	10512.952
588.046	10454.125
588.174	10503.702
588.302	10492.615
588.430	10514.288
588.558	10544.317
588.687	10516.663
588.815	10496.462
588.943	10516.692
589.071	10475.500
589.199	10504.721
589.327	10454.327
589.455	10542.423
589.583	10463.644
589.712	10478.923
589.840	10435.769
589.968	10439.327
590.096	10465.413
590.224	10437.692
590.352	10485.712
590.480	10432.423
590.608	10416.529
590.737	10471.885
590.865	10495.808
590.993	10383.192
591.121	10443.135
591.249	10384.952
591.377	10425.058
591.505	10522.721
591.633	10415.337
591.762	10427.327
591.890	10440.673
592.018	10533.663
592.146	10443.298
592.274	10446.808
592.402	10427.788
592.530	10597.971
592.658	10510.683
592.787	10514.721
592.915	10546.529
593.043	10448.587
593.171	10494.625
593.299	10512.212
593.427	10481.019
593.555	10505.385
593.683	10516.731
593.812	10519.500
593.940	10537.885
594.068	10536.856
594.196	10539.567
594.324	10581.962
594.452	10794.279
594.580	10663.615
594.708	10676.673
594.837	10707.356
594.965	10758.394
595.093	10720.769
595.221	10807.125
595.349	10751.240
595.477	10767.067
595.605	10827.952
595.733	10810.115
595.862	10854.952
595.990	10898.731
596.118	10911.452
596.246	10976.798
596.374	10880.192
596.502	10965.856
596.630	10950.308
596.758	10923.933
596.887	10977.817
597.015	10975.212
597.143	10992.173
597.271	10976.962
597.399	11045.731
597.527	10978.529
597.655	10992.087
597.783	11016.317
597.912	11005.913
598.040	11044.625
598.168	10988.154
598.296	10982.087
598.424	11167.240
598.552	10990.462
598.680	11018.375
598.808	11052.740
598.937	11004.010
599.065	11007.923
599.193	11055.962
599.321	11056.538
599.449	10997.317
599.577	10995.548
599.705	10987.490
599.833	10958.808
599.962	10943.788
600.090	10991.779
600.218	10955.240
600.346	10964.865
600.474	10938.817
600.602	10917.635
600.730	10895.096
600.858	10938.846
600.987	10983.413
601.115	10956.558
601.243	11005.635
601.371	11036.644
601.499	11036.125
601.627	11026.125
601.755	10971.173
601.883	11034.808
602.012	10924.288
602.140	11052.606
602.268	11064.173
602.396	11148.231
602.524	11048.760
602.652	11143.923
602.780	11148.202
602.908	11147.519
603.037	11225.683
603.165	11229.462
603.293	11256.423
603.421	11249.750
603.549	11264.865
603.677	11335.298
603.805	11318.327
603.933	11360.490
604.062	11384.913
604.190	11479.375
604.318	11460.019
604.446	11444.923
604.574	11526.952
604.702	11592.654
604.830	11529.529
604.958	11626.087
605.087	11625.971
605.215	11699.894
605.343	11798.462
605.471	11744.279
605.599	11772.000
605.727	11869.510
605.855	11839.827
605.983	11891.260
606.112	11941.038
606.240	11895.385
606.368	11933.317
606.496	11914.913
606.624	12028.337
606.752	11975.125
606.880	12055.913
607.008	11998.769
607.137	11997.644
607.265	12127.875
607.393	12071.923
607.521	12144.365
607.649	12046.173
607.777	12078.356
607.905	12125.529
608.033	12040.981
608.162	12072.846
608.290	12073.337
608.418	12183.760
608.546	12126.337
608.674	12157.173
608.802	12098.567
608.930	12082.538
609.058	12074.029
609.187	12062.317
609.315	12055.529
609.443	12033.731
609.571	12185.702
609.699	12014.510
609.827	12128.048
609.955	12082.683
610.083	12029.837
610.212	12005.375
610.340	11994.356
610.468	11970.365
610.596	12023.510
610.724	11957.779
610.852	11996.404
610.980	12023.125
611.108	11992.596
611.237	11971.481
611.365	11980.788
611.493	11970.788
611.621	11972.183
611.749	11998.240
611.877	12068.779
612.005	12027.548
612.133	12046.327
612.262	12059.452
612.390	12094.356
612.518	12133.654
612.646	12090.135
612.774	12151.942
612.902	12147.904
613.030	12168.029
613.158	12143.856
613.287	12233.548
613.415	12128.596
613.543	12197.346
613.671	12225.308
613.799	12201.019
613.927	12269.654
614.055	12303.135
614.183	12267.750
614.312	12320.971
614.440	12443.308
614.568	12379.433
614.696	12397.548
614.824	12431.000
614.952	12479.981
615.080	12473.519
615.208	12528.856
615.337	12615.663
615.465	12509.615
615.593	12640.808
615.721	12586.279
615.849	12678.721
615.977	12668.154
616.105	12707.846
616.233	12738.683
616.362	12781.538
616.490	12775.106
616.618	12794.548
616.746	12933.048
616.874	12894.115
617.002	12925.337
617.130	12935.019
617.258	12931.933
617.387	12935.250
617.515	12990.798
617.643	12974.404
617.771	13046.673
617.899	13008.019
618.027	13070.135
618.155	13061.587
618.283	13096.904
618.412	13115.250
618.540	13141.846
618.668	13145.481
618.796	13141.500
618.924	13110.712
619.052	13127.163
619.180	13116.750
619.308	13107.260
619.437	13147.337
619.565	13158.231
619.693	13103.663
619.821	13164.519
619.949	13110.029
620.077	13154.269
620.205	13184.038
620.333	13176.375
620.462	13160.933
620.590	13162.029
620.718	13201.058
620.846	13203.471
620.974	13190.433
621.102	13270.317
621.230	13208.000
621.358	13335.635
621.487	13180.933
621.615	13203.750
621.743	13132.481
621.871	13233.635
621.999	13131.423
622.127	13154.923
622.255	13141.846
622.383	13153.346
622.512	13114.529
622.640	13140.135
622.768	13190.337
622.896	13272.442
623.024	13187.923
623.152	13132.538
623.280	13244.385
623.408	13162.260
623.537	13203.635
623.665	13155.260
623.793	13191.269
623.921	13209.596
624.049	13179.038
624.177	13155.279
624.305	13173.981
624.433	13187.567
624.562	13181.788
624.690	13286.913
624.818	13137.135
624.946	13139.308
625.074	13074.433
625.202	13141.183
625.330	13135.712
625.458	13256.510
625.587	13122.019
625.715	13207.577
625.843	13143.154
625.971	13167.577
626.099	13190.558
626.227	13205.923
626.355	13134.221
626.483	13255.317
626.612	13184.317
626.740	13206.115
626.868	13170.596
626.996	13259.952
627.124	13169.769
627.252	13165.269
627.380	13222.298
627.508	13147.779
627.637	13224.837
627.765	13244.654
627.893	13281.808
628.021	13306.202
628.149	13238.856
628.277	13337.115
628.405	13318.212
628.533	13301.817
628.662	13306.625
628.790	13416.269
628.918	13338.125
629.046	13495.721
629.174	13335.481
629.302	13414.760
629.430	13345.000
629.558	13426.587
629.687	13365.952
629.815	13472.817
629.943	13561.404
630.071	13531.048
630.199	13525.077
630.327	13547.856
630.455	13558.154
630.583	13598.144
630.712	13596.673
630.840	13617.923
630.968	13637.856
631.096	13650.952
631.224	13663.712
631.352	13787.490
631.480	13698.375
631.608	13894.548
631.737	13699.452
631.865	13837.337
631.993	13814.788
632.121	13945.481
632.249	13815.817
632.377	13796.567
632.505	13804.471
632.633	13848.106
632.762	13818.625
632.890	13796.558
633.018	13821.260
633.146	13794.885
633.274	13778.952
633.402	13839.875
633.530	13811.981
633.658	13807.087
633.787	13830.635
633.915	13799.087
634.043	13851.010
634.171	13835.596
634.299	13841.510
634.427	13786.202
634.555	14029.817
634.683	13828.615
634.812	13807.808
634.940	13775.827
635.068	13763.385
635.196	13766.260
635.324	13773.846
635.452	13764.423
635.580	13863.779
635.708	13715.404
635.837	13697.923
635.965	13757.000
636.093	13685.740
636.221	13661.567
636.349	13624.442
636.477	13597.721
636.605	13652.654
636.733	13586.308
636.862	13624.231
636.990	13581.356
637.118	13569.048
637.246	13493.635
637.374	13679.875
637.502	13479.288
637.630	13465.683
637.758	13452.038
637.887	13384.856
638.015	13524.519
638.143	13458.817
638.271	13350.038
638.399	13415.788
638.527	13373.510
638.655	13340.875
638.783	13332.337
638.912	13370.067
639.040	13262.288
639.168	13264.625
639.296	13235.375
639.424	13321.481
639.552	13245.106
639.680	13271.058
639.808	13267.048
639.937	13157.971
640.065	13160.865
640.193	13149.952
640.321	13269.317
640.449	13227.760
640.577	13128.202
640.705	13175.010
640.833	13166.990
640.962	13257.115
641.090	13123.192
641.218	13146.288
641.346	13209.115
641.474	13139.856
641.602	13136.971
641.730	13128.933
641.858	13085.356
641.987	13136.317
642.115	13286.058
642.243	13157.558
642.371	13291.962
642.499	13134.240
642.627	13176.663
642.755	13135.913
642.883	13158.856
643.012	13133.702
643.140	13232.981
643.268	13210.923
643.396	13131.692
643.524	13158.077
643.652	13256.942
643.780	13107.106
643.908	13151.673
644.037	13241.577
644.165	13245.298
644.293	13346.856
644.421	13131.413
644.549	13180.702
644.677	13192.894
644.805	13182.240
644.933	13123.817
645.062	13167.519
645.190	13316.587
645.318	13186.452
645.446	13100.510
645.574	13110.423
645.702	13168.490
645.830	13157.144
645.958	13111.856
646.087	13092.077
646.215	13028.231
646.343	13086.740
646.471	13266.337
646.599	13091.115
646.727	13074.413
646.855	13062.221
646.983	13048.183
647.112	13131.962
647.240	13038.548
647.368	13083.702
647.496	13033.356
647.624	13022.038
647.752	12991.038
647.880	12980.558
648.008	13002.817
648.137	12995.538
648.265	12931.385
648.393	13023.231
648.521	12932.673
648.649	13001.481
648.777	12993.163
648.905	12885.529
649.033	12947.538
649.162	12782.154
649.290	12777.154
649.418	12770.481
649.546	12921.788
649.674	12730.779
649.802	12719.875
649.930	12671.250
650.058	12638.538
650.187	12686.375
650.315	12600.106
650.443	12633.010
650.571	12545.250
650.699	12530.971
650.827	12529.058
650.955	12451.875
651.083	12536.923
651.212	12476.202
651.340	12471.856
651.468	12415.827
651.596	12414.202
651.724	12410.712
651.852	12342.202
651.980	12319.750
652.108	12310.942
652.237	12302.404
652.365	12228.375
652.493	12262.548
652.621	12219.000
652.749	12202.240
652.877	12183.308
653.005	12217.029
653.133	12111.288
653.262	12105.923
653.390	12062.827
653.518	12207.394
653.646	12038.298
653.774	12017.827
653.902	12096.327
654.030	12022.808
654.158	11959.452
654.287	11986.019
654.415	11933.558
654.543	11970.231
654.671	11906.500
654.799	11885.135
654.927	11856.913
655.055	11798.375
655.183	11826.202
655.312	11779.894
655.440	11755.212
655.568	11753.808
655.696	11799.337
655.824	11705.769
655.952	11726.029
656.080	11657.173
656.208	11644.567
656.337	11654.385
656.465	11828.404
656.593	11606.933
656.721	11620.538
656.849	11696.981
656.977	11478.779
657.105	11514.221
657.233	11513.817
657.362	11564.327
657.490	11496.769
657.618	11465.298
657.746	11441.558
657.874	11364.337
658.002	11330.471
658.130	11333.327
658.258	11273.231
658.387	11239.779
658.515	11191.442
658.643	11206.135
658.771	11272.683
658.899	11157.308
659.027	11154.048
659.155	11130.452
659.283	11095.635
659.412	11124.260
659.540	11067.875
659.668	11097.317
659.796	11172.740
659.924	11119.279
660.052	11170.010
660.180	11049.856
660.308	11140.712
660.437	11112.798
660.565	11039.298
660.693	10938.942
660.821	11114.913
660.949	10913.683
661.077	10948.346
661.205	11098.481
661.333	10862.615
661.462	10854.279
661.590	10965.481
661.718	10866.365
661.846	10845.433
661.974	10793.529
662.102	10793.817
662.230	10794.010
662.358	10665.308
662.487	10743.587
662.615	10722.029
662.743	10706.481
662.871	10667.615
662.999	10599.442
663.127	10579.231
663.255	10581.269
663.383	10710.077
663.512	10510.625
663.640	10560.923
663.768	10541.673
663.896	10494.894
664.024	10494.087
664.152	10452.260
664.280	10537.058
664.408	10418.231
664.537	10384.346
664.665	10426.106
664.793	10403.038
664.921	10349.231
665.049	10388.394
665.177	10312.029
665.305	10310.567
665.433	10299.260
665.562	10430.471
665.690	10286.702
665.818	10450.558
665.946	10201.567
666.074	10212.635
666.202	10206.587
666.330	10149.913
666.458	10564.913
666.587	10127.231
666.715	10131.712
666.843	10088.856
666.971	10106.788
667.099	10113.875
667.227	10182.029
667.355	10095.404
667.483	10011.827
667.612	10037.019
667.740	10008.269
667.868	9968.462
667.996	9947.173
668.124	9995.865
668.252	10057.587
668.380	9886.808
668.508	9894.500
668.637	9870.365
668.765	9851.971
668.893	9845.625
669.021	9784.817
669.149	9851.500
669.277	9766.692
669.405	9844.183
669.533	9792.077
669.662	9717.269
669.790	9711.115
669.918	9733.317
670.046	9819.163
670.174	9606.712
670.302	9586.144
670.430	9558.567
670.558	9591.817
670.687	9712.625
670.815	9513.000
670.943	9545.760
671.071	9450.462
671.199	9409.673
671.327	9444.173
671.455	9435.788
671.583	9394.519
671.712	9361.029
671.840	9398.058
671.968	9500.856
672.096	9467.327
672.224	9218.702
672.352	9222.183
672.480	9167.760
672.608	9197.885
672.737	9164.019
672.865	9105.615
672.993	9100.279
673.121	9062.548
673.249	9046.856
673.377	8981.606
673.505	8970.288
673.633	9040.837
673.762	8939.962
673.890	8940.587
674.018	8910.635
674.146	8884.827
674.274	8873.731
674.402	8871.962
674.530	8840.106
674.658	8771.904
674.787	8727.683
674.915	8884.308
675.043	8710.010
675.171	8706.192
675.299	8642.740
675.427	8603.615
675.555	8589.212
675.683	8632.913
675.812	8551.279
675.940	8529.827
676.068	8470.827
676.196	8514.135
676.324	8451.654
676.452	8397.837
676.580	8367.548
676.708	8340.558
676.837	8332.471
676.965	8415.260
677.093	8432.731
677.221	8294.962
677.349	8194.135
677.477	8276.327
677.605	8172.875
677.733	8164.625
677.862	8139.885
677.990	8137.337
678.118	8166.356
678.246	8088.971
678.374	8098.587
678.502	8037.404
678.630	7964.087
678.758	8010.058
678.887	8102.375
679.015	7866.240
679.143	7866.577
679.271	7835.625
679.399	7843.365
679.527	7877.779
679.655	7909.760
679.783	7764.865
679.912	7755.029
680.040	7891.192
680.168	7748.894
680.296	7735.019
680.424	7700.625
680.552	7657.740
680.680	7630.250
680.808	7594.933
680.937	7572.856
681.065	7638.317
681.193	7542.221
681.321	7518.038
681.449	7568.490
681.577	7489.673
681.705	7454.279
681.833	7483.462
681.962	7434.154
682.090	7395.173
682.218	7414.317
682.346	7404.058
682.474	7359.663
682.602	7349.606
682.730	7404.240
682.858	7308.212
682.987	7284.317
683.115	7313.144
683.243	7246.952
683.371	7261.404
683.499	7218.269
683.627	7243.971
683.755	7195.885
683.883	7157.154
684.012	7216.923
684.140	7134.462
684.268	7131.817
684.396	7200.394
684.524	7110.096
684.652	7143.404
684.780	7095.654
684.908	7103.413
685.037	7122.481
685.165	7043.135
685.293	7110.490
685.421	7060.673
685.549	7011.596
685.677	6966.404
685.805	6991.087
685.933	6943.760
686.062	6974.250
686.190	6905.288
686.318	6919.481
686.446	6875.856
686.574	6842.894
686.702	6898.731
686.830	6822.740
686.958	6904.673
687.087	6796.115
687.215	6775.029
687.343	6796.971
687.471	6930.413
687.599	6698.269
687.727	6675.923
687.855	6659.904
687.983	6660.933
688.112	6677.404
688.240	6656.827
688.368	6660.981
688.496	6611.327
688.624	6607.923
688.752	6728.135
688.880	6568.135
689.008	6558.173
689.137	6543.635
689.265	6489.240
689.393	6477.769
689.521	6482.577
689.649	6546.433
689.777	6493.481
689.905	6514.452
690.033	6380.058
690.162	6356.654
690.290	6427.096
690.418	6343.577
690.546	6402.481
690.674	6364.154
690.802	6364.904
690.930	6334.269
691.058	6299.154
691.187	6283.106
691.315	6231.288
691.443	6208.990
691.571	6243.125
691.699	6193.240
691.827	6157.394
691.955	6150.990
692.083	6132.038
692.212	6148.240
692.340	6118.962
692.468	6138.106
692.596	6124.769
692.724	6065.971
692.852	6099.000
692.980	6047.817
693.108	6087.510
693.237	5985.048
693.365	5970.144
693.493	5960.135
693.621	5939.538
693.749	5894.808
693.877	5951.000
694.005	5876.375
694.133	5853.356
694.262	5893.644
694.390	5795.538
694.518	5795.971
694.646	5790.154
694.774	5711.885
694.902	5753.606
695.030	5739.144
695.158	5686.721
695.287	5697.279
695.415	5678.529
695.543	5647.663
695.671	5603.173
695.799	5708.250
695.927	5600.827
696.055	5630.577
696.183	5561.048
696.312	5719.577
696.440	5563.240
696.568	5565.548
696.696	5445.500
696.824	5385.875
696.952	5431.567
697.080	5423.356
697.208	5359.952
697.337	5362.096
697.465	5338.317
697.593	5316.827
697.721	5427.038
697.849	5298.644
697.977	5301.942
698.105	5332.760
698.233	5283.337
698.362	5197.221
698.490	5350.327
698.618	5175.346
698.746	5146.625
698.874	5209.865
699.002	5158.644
699.130	5179.298
699.258	5115.567
699.387	5038.558
699.515	5094.356
699.643	5093.683
699.771	5158.000
699.899	5046.625
700.027	5001.183
700.155	5062.837
700.283	4944.029
700.412	4952.971
700.540	4974.644
700.668	5034.442
700.796	4907.913
700.924	4943.779
701.052	4947.308
701.180	4909.154
701.308	4839.587
701.437	4810.096
701.565	4796.558
701.693	4842.856
701.821	4976.510
701.949	4732.837
702.077	4765.221
702.205	4833.308
702.333	4713.817
702.462	4697.942
702.590	4754.952
702.718	4659.942
702.846	4822.000
702.974	4619.990
703.102	4616.038
703.230	4651.356
703.358	4568.510
703.487	4571.433
703.615	4582.490
703.743	4524.288
703.871	4518.202
703.999	4513.615
704.127	4488.240
704.255	4445.731
704.383	4481.577
704.512	4525.500
704.640	4453.644
704.768	4520.490
704.896	4398.885
705.024	4326.519
705.152	4374.481
705.280	4400.337
705.408	4295.500
705.537	4293.038
705.665	4301.788
705.793	4278.990
705.921	4268.375
706.049	4209.856
706.177	4275.308
706.305	4183.529
706.433	4237.288
706.562	4201.231
706.690	4213.587
706.818	4204.029
706.946	4123.875
707.074	4133.663
707.202	4091.558
707.330	4102.442
707.458	4063.202
707.587	4036.760
707.715	4058.077
707.843	4086.279
707.971	4062.154
708.099	3993.692
708.227	3971.365
708.355	3989.942
708.483	3960.615
708.612	3976.788
708.740	3937.933
708.868	3901.327
708.996	3975.606
709.124	3953.077
709.252	3899.567
709.380	3918.615
709.508	3873.885
709.637	3878.279
709.765	3858.394
709.893	3900.212
710.021	3813.923
710.149	3891.923
710.277	3774.404
710.405	3788.212
710.533	3795.279
710.662	3749.452
710.790	3876.548
710.918	3732.327
711.046	3762.942
711.174	3716.990
711.302	3742.721
711.430	3709.317
711.558	3726.385
711.687	3724.375
711.815	3646.490
711.943	3643.471
712.071	3654.365
712.199	3679.798
712.327	3704.673
712.455	3606.788
712.583	3742.260
712.712	3621.019
712.840	3643.048
712.968	3571.798
713.096	3576.606
713.224	3550.279
713.352	3541.038
713.480	3489.817
713.608	3505.087
713.737	3464.125
713.865	3528.827
713.993	3494.038
714.121	3503.096
714.249	3426.808
714.377	3437.827
714.505	3427.135
714.633	3431.654
714.762	3418.606
714.890	3426.788
715.018	3382.000
715.146	3405.808
715.274	3365.529
715.402	3357.923
715.530	3348.269
715.658	3392.029
715.787	3347.817
715.915	3417.000
716.043	3326.144
716.171	3427.904
716.299	3296.288
716.427	3349.394
716.555	3272.721
716.683	3272.856
716.812	3268.327
716.940	3237.212
717.068	3220.692
717.196	3367.144
717.324	3244.827
717.452	3230.654
717.580	3262.913
717.708	3183.913
717.837	3197.288
717.965	3218.596
718.093	3190.192
718.221	3213.240
718.349	3234.317
718.477	3156.923
718.605	3223.442
718.733	3155.721
718.862	3159.808
718.990	3111.192
719.118	3169.096
719.246	3086.933
719.374	3097.596
719.502	3128.952
719.630	3199.606
719.758	3066.490
719.887	3032.308
720.015	3079.846
720.143	3094.096
720.271	3002.990
720.399	3043.904
720.527	3001.413
720.655	3092.365
720.783	3007.231
720.912	2967.365
721.040	2985.250
721.168	3001.337
721.296	2934.837
721.424	2945.837
721.552	2916.192
721.680	2986.154
721.808	2937.163
721.937	2922.856
722.065	2948.500
722.193	2917.952
722.321	2901.337
722.449	2884.683
722.577	2843.510
722.705	2854.394
722.833	2868.875
722.962	2853.067
723.090	2826.404
723.218	2834.933
723.346	2863.442
723.474	2797.904
723.602	2776.356
723.730	2774.058
723.858	2754.038
723.987	2770.375
724.115	2748.702
724.243	2796.067
724.371	2722.779
724.499	2723.904
724.627	2726.346
724.755	2702.740
724.883	2803.125
725.012	2853.644
725.140	2722.212
725.268	2648.077
725.396	2724.067
725.524	2774.837
725.652	2639.567
725.780	2748.365
725.908	2631.923
726.037	2647.298
726.165	2627.135
726.293	2583.308
726.421	2619.798
726.549	2631.837
726.677	2609.798
726.805	2538.288
726.933	2563.894
727.062	2539.385
727.190	2523.644
727.318	2515.837
727.446	2510.971
727.574	2496.644
727.702	2470.962
727.830	2522.356
727.958	2517.221
728.087	2562.577
728.215	2601.644
728.343	2471.173
728.471	2486.500
728.599	2603.375
728.727	2448.683
728.855	2453.471
728.983	2428.923
729.112	2434.048
729.240	2449.971
729.368	2420.510
729.496	2448.846
729.624	2424.490
729.752	2394.558
729.880	2387.981
730.008	2369.096
730.137	2392.981
730.265	2383.558
730.393	2507.250
730.521	2470.067
730.649	2370.154
730.777	2333.077
730.905	2381.712
731.033	2338.702
731.162	2398.606
731.290	2400.538
731.418	2359.981
731.546	2343.462
731.674	2361.000
731.802	2343.750
731.930	2377.769
732.058	2354.385
732.187	2330.106
732.315	2352.721
732.443	2350.577
732.571	2328.404
732.699	2321.798
732.827	2331.837
732.955	2321.615
733.083	2298.288
733.212	2326.740
733.340	2314.154
733.468	2301.250
733.596	2289.375
733.724	2284.394
733.852	2281.981
733.980	2272.942
734.108	2307.817
734.237	2279.635
734.365	2286.471
734.493	2271.548
734.621	2251.952
734.749	2276.010
734.877	2246.115
735.005	2236.827
735.133	2256.481
735.262	2254.279
735.390	2226.269
735.518	2243.260
735.646	2225.596
735.774	2234.087
735.902	2236.077
736.030	2214.779
736.158	2218.990
736.287	2216.644
736.415	2226.327
736.543	2199.538
736.671	2184.981
736.799	2196.654
736.927	2191.163
737.055	2208.308
737.183	2192.798
737.312	2161.442
737.440	2176.096
737.568	2181.519
737.696	2179.038
737.824	2176.192
737.952	2372.654
738.080	2153.577
738.208	2152.865
738.337	2152.702
738.465	2154.817
738.593	2138.096
738.721	2127.048
738.849	2139.567
738.977	2114.731
739.105	2143.981
739.233	2141.817
739.362	2117.087
739.490	2118.327
739.618	2122.183
739.746	2128.654
739.874	2087.433
740.002	2113.212
740.130	2074.125
740.258	2080.038
740.387	2093.692
740.515	2100.413
740.643	2065.875
740.771	2081.635
740.899	2037.375
741.027	2059.654
741.155	2067.471
741.283	2070.577
741.412	2074.183
741.540	2050.692
741.668	2033.163
741.796	2045.567
741.924	2035.798
742.052	2021.692
742.180	2030.346
742.308	2007.115
742.437	2010.173
742.565	2009.885
742.693	2024.010
742.821	2000.962
742.949	1991.221
743.077	1969.375
743.205	1976.202
743.333	1980.990
743.462	1985.433
743.590	1966.490
743.718	1976.663
743.846	1953.558
743.974	2001.250
744.102	1949.635
744.230	1948.827
744.358	1956.471
744.487	1931.731
744.615	1928.221
744.743	1926.202
744.871	1921.577
744.999	1914.308
745.127	1923.952
745.255	1890.192
745.383	1900.625
745.512	1886.298
745.640	1890.971
745.768	1899.000
745.896	1872.798
746.024	1877.663
746.152	1883.875
746.280	1888.163
746.408	1877.087
746.537	1866.577
746.665	1876.971
746.793	1843.337
746.921	1855.856
747.049	1859.731
747.177	1827.413
747.305	1857.231
747.433	1846.327
747.562	1834.798
747.690	1829.298
747.818	1815.240
747.946	1816.558
748.074	1805.577
748.202	1815.269
748.330	1796.702
748.458	1792.519
748.587	1807.663
748.715	1810.615
748.843	1774.269
748.971	1790.212
749.099	1793.481
749.227	1788.260
749.355	1808.519
749.483	1757.221
749.612	1794.202
749.740	1776.885
749.868	1761.413
749.996	1768.385
750.124	1764.096
750.252	1753.923
750.380	1753.202
750.508	1747.837
750.637	1732.202
750.765	1735.087
750.893	1729.096
751.021	1722.288
751.149	1730.365
751.277	1697.798
751.405	1697.692
751.533	1717.144
751.662	1688.058
751.790	1689.981
751.918	1685.625
752.046	1688.298
752.174	1672.971
752.302	1662.433
752.430	1654.154
752.558	1670.490
752.687	1661.269
752.815	1653.740
752.943	1655.115
753.071	1642.856
753.199	1652.769
753.327	1664.625
753.455	1622.587
753.583	1613.038
753.712	1609.615
753.840	1617.750
753.968	1612.048
754.096	1623.019
754.224	1620.106
754.352	1582.154
754.480	1618.625
754.608	1591.538
754.737	1595.356
754.865	1592.558
754.993	1597.606
755.121	1569.923
755.249	1547.635
755.377	1539.038
755.505	1566.192
755.633	1562.173
755.762	1543.577
755.890	1560.327
756.018	1538.269
756.146	1528.673
756.274	1516.942
756.402	1525.308
756.530	1532.942
756.658	1521.144
756.787	1505.942
756.915	1510.433
757.043	1497.692
757.171	1499.327
757.299	1510.490
757.427	1474.356
757.555	1475.808
757.683	1484.837
757.812	1481.404
757.940	1467.173
758.068	1465.837
758.196	1460.865
758.324	1449.933
758.452	1457.375
758.580	1457.798
758.708	1445.981
758.837	1450.029
758.965	1453.942
759.093	1441.038
759.221	1419.894
759.349	1408.144
759.477	1408.058
759.605	1397.221
759.733	1411.471
759.862	1402.663
759.990	1405.298
760.118	1396.481
760.246	1398.135
760.374	1391.548
760.502	1384.760
760.630	1373.163
760.758	1369.567
760.887	1369.740
761.015	1349.356
761.143	1366.096
761.271	1353.846
761.399	1343.192
761.527	1344.750
761.655	1355.731
761.783	1325.385
761.912	1327.500
762.040	1330.240
762.168	1309.327
762.296	1308.894
762.424	1309.933
762.552	1315.221
762.680	1288.192
762.808	1320.808
762.937	1301.904
763.065	1279.548
763.193	1272.721
763.321	1269.490
763.449	1258.471
763.577	1250.394
763.705	1278.298
763.833	1264.212
763.962	1259.913
764.090	1244.346
764.218	1239.019
764.346	1231.279
764.474	1239.731
764.602	1217.923
764.730	1229.865
764.858	1226.279
764.987	1223.529
765.115	1214.279
765.243	1192.298
765.371	1209.375
765.499	1196.923
765.627	1193.115
765.755	1200.962
765.883	1188.519
766.012	1198.538
766.140	1173.433
766.268	1172.231
766.396	1173.144
766.524	1172.048
766.652	1151.808
766.780	1163.933
766.908	1160.673
767.037	1165.433
767.165	1148.279
767.293	1152.442
767.421	1167.337
767.549	1132.875
767.677	1163.096
767.805	1137.865
767.933	1137.173
768.062	1121.519
768.190	1124.904
768.318	1132.981
768.446	1117.260
768.574	1115.317
768.702	1126.221
768.830	1123.702
768.958	1104.260
769.087	1122.856
769.215	1102.548
769.343	1094.837
769.471	1125.010
769.599	1103.760
769.727	1096.683
769.855	1092.067
769.983	1116.875
770.112	1089.779
770.240	1091.279
770.368	1075.731
770.496	1064.567
770.624	1076.077
770.752	1062.346
770.880	1077.269
771.008	1061.933
771.137	1061.952
771.265	1058.865
771.393	1045.817
771.521	1058.308
771.649	1069.663
771.777	1079.962
771.905	1105.125
772.033	1079.058
772.162	1042.846
772.290	1046.962
772.418	1042.635
772.546	1037.894
772.674	1029.971
772.802	1032.702
772.930	1043.356
773.058	1029.904
773.187	1026.048
773.315	1018.481
773.443	1018.087
773.571	1027.385
773.699	1015.125
773.827	1023.433
773.955	1029.337
774.083	1012.346
774.212	1003.519
774.340	1004.808
774.468	1000.356
774.596	1002.654
774.724	1009.596
774.852	1008.788
774.980	993.548
775.108	999.962
775.237	985.423
775.365	984.260
775.493	990.212
775.621	970.212
775.749	985.096
775.877	986.827
776.005	989.404
776.133	973.865
776.262	976.942
776.390	969.962
776.518	958.798
776.646	962.221
776.774	971.452
776.902	955.058
777.030	954.817
777.158	961.240
777.287	966.096
777.415	952.038
777.543	951.144
777.671	958.317
777.799	947.442
777.927	952.077
778.055	949.115
778.183	940.615
778.312	939.221
778.440	936.942
778.568	951.365
778.696	947.808
778.824	938.298
778.952	940.250
779.080	922.038
779.208	921.625
779.337	929.250
779.465	919.894
779.593	922.702
779.721	922.990
779.849	910.635
779.977	910.173
780.105	906.385
780.233	909.990
780.362	899.558
780.490	888.529
780.618	901.606
780.746	892.269
780.874	887.010
781.002	886.837
781.130	882.712
781.258	873.462
781.387	897.202
781.515	887.308
781.643	871.298
781.771	873.904
781.899	889.442
782.027	871.308
782.155	871.923
782.283	861.231
782.412	874.933
782.540	862.740
782.668	860.635
782.796	864.808
782.924	862.587
783.052	870.173
783.180	851.337
783.308	859.779
783.437	855.288
783.565	856.798
783.693	853.875
783.821	846.702
783.949	846.394
784.077	836.481
784.205	834.288
784.333	830.692
784.462	834.952
784.590	826.385
784.718	820.885
784.846	828.048
784.974	840.029
785.102	819.577
785.230	826.673
785.358	808.577
785.487	814.942
785.615	813.000
785.743	810.548
785.871	811.375
785.999	807.798
786.127	808.587
786.255	789.510
786.383	793.365
786.512	799.250
786.640	793.202
786.768	783.298
786.896	788.779
787.024	773.865
787.152	777.779
787.280	793.837
787.408	778.038
787.537	787.490
787.665	780.962
787.793	773.673
787.921	763.567
788.049	753.663
788.177	766.077
788.305	762.000
788.433	764.875
788.562	751.625
788.690	751.106
788.818	758.212
788.946	745.587
789.074	740.981
789.202	749.221
789.330	733.712
789.458	750.500
789.587	737.721
789.715	747.173
789.843	737.625
789.971	728.952
790.099	724.760
790.227	721.317
790.355	717.308
790.483	724.798
790.612	714.317
790.740	729.471
790.868	711.827
790.996	727.346
791.124	716.558
791.252	713.817
791.380	697.673
791.508	703.635
791.637	704.288
791.765	687.452
791.893	700.587
792.021	697.096
792.149	688.202
792.277	687.788
792.405	676.433
792.533	692.346
792.662	682.067
792.790	673.558
792.918	685.990
793.046	667.010
793.174	677.894
793.302	668.087
793.430	665.212
793.558	667.894
793.687	661.740
793.815	655.577
793.943	671.490
794.071	649.240
794.199	647.567
794.327	650.981
794.455	654.144
794.583	650.269
794.712	645.106
794.840	636.750
794.968	641.837
795.096	646.856
795.224	619.769
795.352	664.808
795.480	627.404
795.608	622.471
795.737	616.990
795.865	618.904
795.993	624.952
796.121	611.240
796.249	608.471
796.377	612.875
796.505	613.192
796.633	607.433
796.762	601.019
796.890	596.654
797.018	603.029
797.146	599.702
797.274	597.115
797.402	584.067
797.530	583.596
797.658	585.308
797.787	600.115
797.915	587.702
798.043	574.029
798.171	585.240
798.299	568.596
798.427	577.731
798.555	587.856
798.683	570.115
798.812	597.692
798.940	611.000
799.068	595.721
799.196	565.798
799.324	567.163
799.452	550.173
799.580	555.087
799.708	553.817
799.837	550.192
799.965	544.125
800.093	539.490
800.221	537.971
800.349	537.327
800.477	536.240
800.605	532.337
800.733	544.740
800.862	528.096
800.990	527.529
801.118	527.567
801.246	523.817
801.374	527.865
801.502	519.221
801.630	523.625
801.758	524.933
801.887	505.558
802.015	517.894
802.143	510.298
802.271	508.731
802.399	502.433
802.527	493.260
802.655	503.663
802.783	495.308
802.912	501.837
803.040	495.375
803.168	489.913
803.296	500.202
803.424	484.971
803.552	493.394
803.680	491.510
803.808	489.606
803.937	483.798
804.065	485.077
804.193	476.875
804.321	501.615
804.449	493.596
804.577	479.606
804.705	488.096
804.833	471.769
804.962	467.154
805.090	473.250
805.218	465.663
805.346	460.779
805.474	476.365
805.602	469.798
805.730	472.837
805.858	454.192
805.987	455.663
806.115	453.683
806.243	455.356
806.371	454.635
806.499	452.500
806.627	442.010
806.755	449.192
806.883	452.269
807.012	445.240
807.140	440.240
807.268	435.692
807.396	440.692
807.524	433.269
807.652	443.154
807.780	436.904
807.908	431.481
808.037	441.923
808.165	436.663
808.293	424.000
808.421	427.712
808.549	422.875
808.677	428.202
808.805	435.250
808.933	423.894
809.062	416.635
809.190	437.663
809.318	416.981
809.446	411.202
809.574	422.394
809.702	409.587
809.830	404.779
809.958	417.106
810.087	415.163
810.215	407.288
810.343	413.346
810.471	406.423
810.599	400.846
810.727	406.067
810.855	399.163
810.983	404.135
811.112	400.038
811.240	395.423
811.368	393.529
811.496	405.212
811.624	387.885
811.752	392.904
811.880	408.481
812.008	393.202
812.137	404.702
812.265	387.654
812.393	387.865
812.521	384.135
812.649	386.510
812.777	377.644
812.905	394.308
813.033	387.865
813.162	373.721
813.290	370.125
813.418	378.548
813.546	370.894
813.674	370.433
813.802	367.048
813.930	366.269
814.058	364.212
814.187	366.654
814.315	365.567
814.443	358.298
814.571	364.500
814.699	352.202
814.827	361.567
814.955	360.087
815.083	349.173
815.212	354.327
815.340	348.038
815.468	357.404
815.596	350.019
815.724	350.519
815.852	354.115
815.980	349.462
816.108	345.837
816.237	347.500
816.365	356.519
816.493	348.404
816.621	353.481
816.749	338.115
816.877	402.058
817.005	355.750
817.133	346.356
817.262	336.846
817.390	330.375
817.518	342.548
817.646	327.106
817.774	324.913
817.902	325.827
818.030	322.394
818.158	330.058
818.287	324.144
818.415	325.096
818.543	324.615
818.671	322.827
818.799	319.760
818.927	312.058
819.055	348.269
819.183	320.923
819.312	335.442
819.440	319.442
819.568	312.721
819.696	319.125
819.824	316.548
819.952	315.471
820.080	314.423
820.208	312.510
820.337	316.125
820.465	312.356
820.593	309.904
820.721	308.712
820.849	302.442
820.977	307.788
821.105	310.337
821.233	297.519
821.362	308.135
821.490	302.029
821.618	311.029
821.746	308.625
821.874	299.654
822.002	288.048
822.130	293.356
822.258	300.875
822.387	294.462
822.515	300.606
822.643	296.933
822.771	291.894
822.899	301.365
823.027	288.365
823.155	292.702
823.283	305.096
823.412	299.740
823.540	285.654
823.668	282.000
823.796	287.577
823.924	281.933
824.052	288.250
824.180	289.240
824.308	287.885
824.437	297.500
824.565	289.923
824.693	272.413
824.821	279.106
824.949	284.942
825.077	282.442
825.205	273.596
825.333	274.298
825.462	282.442
825.590	273.615
825.718	270.019
825.846	273.837
825.974	272.183
826.102	274.567
826.230	274.587
826.358	279.644
826.487	273.010
826.615	268.865
826.743	261.846
826.871	275.308
826.999	262.644
827.127	272.221
827.255	266.173
827.383	259.663
827.512	263.971
827.640	268.663
827.768	283.692
827.896	255.442
828.024	264.394
828.152	262.625
828.280	260.308
828.408	258.817
828.537	253.788
828.665	254.154
828.793	258.952
828.921	255.442
829.049	257.721
829.177	256.913
829.305	255.144
829.433	252.712
829.562	250.971
829.690	253.846
829.818	255.538
829.946	251.923
830.074	249.702
830.202	244.135
830.330	253.394
830.458	241.885
830.587	256.038
830.715	245.423
830.843	244.500
830.971	247.856
831.099	241.952
831.227	275.154
831.355	239.827
831.483	241.317
831.612	244.010
831.740	240.385
831.868	237.596
831.996	245.394
832.124	238.442
832.252	246.154
832.380	240.298
832.508	241.692
832.637	236.029
832.765	247.683
832.893	243.510
833.021	234.154
833.149	229.500
833.277	234.673
833.405	243.702
833.533	232.442
833.662	235.894
833.790	228.808
833.918	236.731
834.046	228.183
834.174	229.760
834.302	240.125
834.430	224.423
834.558	228.942
834.687	235.942
834.815	230.817
834.943	233.606
835.071	234.308
835.199	232.538
835.327	224.231
835.455	236.288
835.583	227.683
835.712	224.817
835.840	229.885
835.968	220.798
836.096	230.990
836.224	222.125
836.352	228.452
836.480	223.115
836.608	219.990
836.737	226.279
836.865	217.481
836.993	226.846
837.121	231.750
837.249	223.712
837.377	217.885
837.505	208.106
837.633	219.173
837.762	223.962
837.890	216.183
838.018	222.183
838.146	213.365
838.274	216.587
838.402	213.808
838.530	228.087
838.658	218.577
838.787	225.606
838.915	210.760
839.043	222.433
839.171	214.308
839.299	218.635
839.427	230.163
839.555	219.413
839.683	210.481
839.812	214.317
839.940	204.471
840.068	211.596
840.196	236.144
840.324	228.394
840.452	219.750
840.580	211.183
840.708	201.923
840.837	213.567
840.965	209.337
841.093	205.750
841.221	209.163
841.349	207.308
841.477	199.990
841.605	204.279
841.733	204.788
841.862	213.067
841.990	206.567
842.118	201.375
842.246	204.048
842.374	197.644
842.502	213.058
842.630	203.808
842.758	199.058
842.887	207.029
843.015	217.183
843.143	201.404
843.271	201.837
843.399	202.019
843.527	204.462
843.655	201.231
843.783	197.885
843.912	198.404
844.040	195.356
844.168	197.125
844.296	211.154
844.424	205.019
844.552	207.606
844.680	201.500
844.808	197.596
844.937	198.558
845.065	196.846
845.193	212.548
845.321	200.346
845.449	207.885
845.577	199.798
845.705	192.981
845.833	195.423
845.962	205.558
846.090	193.567
846.218	206.404
846.346	203.173
846.474	197.904
846.602	193.135
846.730	197.221
846.858	194.654
846.987	190.490
847.115	201.692
847.243	199.192
847.371	184.240
847.499	190.740
847.627	196.654
847.755	193.375
847.883	198.904
848.012	201.798
848.140	187.442
848.268	188.952
848.396	193.231
848.524	198.606
848.652	190.337
848.780	184.202
848.908	193.471
849.037	193.712
849.165	186.231
849.293	194.462
849.421	186.615
849.549	189.731
849.677	188.385
849.805	196.865
849.933	185.721
850.062	189.567
850.190	188.058
850.318	185.904
850.446	192.606
850.574	188.173
850.702	187.875
850.830	179.615
850.958	185.404
851.087	191.423
851.215	182.375
851.343	188.433
851.471	191.375
851.599	192.260
851.727	198.904
851.855	185.971
851.983	187.856
852.112	183.548
852.240	188.394
852.368	196.529
852.496	184.856
852.624	188.212
852.752	193.481
852.880	190.913
853.008	188.654
853.137	185.442
853.265	190.942
853.393	181.942
853.521	179.481
853.649	188.587
853.777	184.144
853.905	179.154
854.033	177.894
854.162	176.183
854.290	181.721
854.418	197.856
854.546	211.923
854.674	195.827
854.802	184.510
854.930	174.692
855.058	184.577
855.187	178.231
855.315	208.615
855.443	177.933
855.571	178.308
855.699	191.875
855.827	174.731
855.955	178.058
856.083	178.519
856.212	180.375
856.340	184.346
856.468	181.173
856.596	182.519
856.724	185.019
856.852	193.894
856.980	176.788
857.108	175.192
857.237	173.279
857.365	186.731
857.493	180.721
857.621	179.481
857.749	178.962
857.877	176.635
858.005	174.385
858.133	174.625
858.262	174.519
858.390	175.154
858.518	173.750
858.646	180.183
858.774	171.615
858.902	173.135
859.030	173.894
859.158	179.356
859.287	174.298
859.415	176.394
859.543	176.462
859.671	180.846
859.799	184.981
859.927	171.942
860.055	171.740
860.183	167.048
860.312	171.019
860.440	176.760
860.568	169.212
860.696	180.346
860.824	183.788
860.952	170.663
861.080	174.365
861.208	172.125
861.337	170.337
861.465	183.510
861.593	173.558
861.721	182.346
861.849	175.817
861.977	171.413
862.105	174.913
862.233	171.712
862.362	170.606
862.490	171.962
862.618	170.933
862.746	170.712
862.874	173.673
863.002	172.865
863.130	172.865
863.258	173.750
863.387	177.462
863.515	174.269
863.643	179.346
863.771	171.163
863.899	175.317
864.027	173.933
864.155	193.010
864.283	171.942
864.412	171.029
864.540	174.337
864.668	166.173
864.796	169.663
864.924	171.490
865.052	165.817
865.180	184.769
865.308	173.135
865.437	168.231
865.565	166.779
865.693	169.365
865.821	166.423
865.949	188.808
866.077	172.048
866.205	171.250
866.333	172.298
866.462	162.904
866.590	174.356
866.718	171.683
866.846	167.529
866.974	171.096
867.102	163.827
867.230	174.567
867.358	167.087
867.487	176.481
867.615	179.269
867.743	166.750
867.871	175.288
867.999	168.740
868.127	181.673
868.255	181.971
868.383	159.663
868.512	172.606
868.640	168.317
868.768	166.808
868.896	178.385
869.024	167.760
869.152	167.615
869.280	159.615
869.408	164.952
869.537	161.529
869.665	164.115
869.793	164.365
869.921	167.385
870.049	159.510
870.177	167.760
870.305	164.990
870.433	165.635
870.562	172.471
870.690	165.308
870.818	173.337
870.946	162.904
871.074	159.298
871.202	165.279
871.330	161.510
871.458	167.029
871.587	165.029
871.715	167.173
871.843	167.683
871.971	175.048
872.099	158.673
872.227	166.548
872.355	162.731
872.483	160.692
872.612	171.394
872.740	163.990
872.868	165.500
872.996	166.404
873.124	174.904
873.252	164.125
873.380	162.856
873.508	172.010
873.637	171.798
873.765	161.712
873.893	161.394
874.021	163.798
874.149	162.779
874.277	166.385
874.405	170.173
874.533	173.356
874.662	160.885
874.790	168.769
874.918	161.548
875.046	167.596
875.174	162.990
875.302	163.529
875.430	163.596
875.558	165.067
875.687	171.144
875.815	167.663
875.943	168.769
876.071	166.260
876.199	168.212
876.327	166.577
876.455	165.019
876.583	159.202
876.712	170.221
876.840	165.567
876.968	164.173
877.096	164.490
877.224	162.577
877.352	158.587
877.480	164.827
877.608	173.615
877.737	168.712
877.865	159.788
877.993	166.212
878.121	167.529
878.249	165.452
878.377	159.635
878.505	166.904
878.633	167.500
878.762	161.510
878.890	162.221
879.018	168.875
879.146	161.923
879.274	188.558
879.402	165.856
879.530	160.779
879.658	165.865
879.787	166.327
879.915	159.269
880.043	157.385
880.171	197.510
880.299	166.346
880.427	168.269
880.555	158.163
880.683	166.404
880.812	163.577
880.940	164.010
881.068	169.933
881.196	163.971
881.324	159.452
881.452	160.212
881.580	167.731
881.708	168.087
881.837	167.356
881.965	163.010
882.093	154.327
882.221	158.106
882.349	157.913
882.477	161.269
882.605	163.808
882.733	170.346
882.862	160.365
882.990	174.202
883.118	169.942
883.246	168.067
883.374	160.760
883.502	170.990
883.630	169.433
883.758	158.788
883.887	164.760
884.015	165.231
884.143	166.413
884.271	165.221
884.399	157.808
884.527	162.962
884.655	156.663
884.783	163.856
884.912	186.394
885.040	170.365
885.168	157.856
885.296	168.760
885.424	161.788
885.552	161.529
885.680	174.308
885.808	167.404
885.937	166.317
886.065	170.481
886.193	163.702
886.321	162.250
886.449	160.375
886.577	163.317
886.705	174.721
886.833	157.760
886.962	165.923
887.090	163.394
887.218	159.577
887.346	158.356
887.474	161.154
887.602	159.683
887.730	157.971
887.858	155.558
887.987	160.202
888.115	161.087
888.243	158.827
888.371	175.856
888.499	164.721
888.627	157.779
888.755	169.269
888.883	161.096
889.012	166.587
889.140	159.981
889.268	162.500
889.396	154.048
889.524	167.029
889.652	153.750
889.780	158.250
889.908	160.769
890.037	167.635
890.165	157.596
890.293	166.048
890.421	164.673
890.549	155.538
890.677	157.529
890.805	163.154
890.933	160.096
891.062	160.490
891.190	164.404
891.318	155.442
891.446	157.942
891.574	150.663
891.702	158.788
891.830	162.154
891.958	170.519
892.087	166.615
892.215	164.375
892.343	165.625
892.471	166.962
892.599	155.231
892.727	169.096
892.855	181.587
892.983	152.375
893.112	160.115
893.240	171.231
893.368	158.423
893.496	168.779
893.624	167.077
893.752	183.471
893.880	169.779
894.008	163.577
894.137	157.606
894.265	167.317
894.393	160.683
894.521	167.471
894.649	162.990
894.777	155.067
894.905	197.221
895.033	157.692
895.162	160.981
895.290	166.952
895.418	162.250
895.546	191.635
895.674	165.740
895.802	201.394
895.930	167.144
896.058	159.010
896.187	163.298
896.315	159.010
896.443	171.058
896.571	182.298
896.699	160.010
896.827	160.933
896.955	160.288
897.083	164.029
897.212	160.779
897.340	161.010
897.468	163.712
897.596	162.577
897.724	157.827
897.852	153.452
897.980	152.885
898.108	170.029
898.237	161.962
898.365	158.067
898.493	163.231
898.621	159.269
898.749	161.846
898.877	163.356
899.005	157.856
899.133	164.019
899.262	176.413
899.390	159.529
899.518	166.077
899.646	157.942
899.774	157.538
899.902	154.798
900.030	167.923
900.158	162.769
900.287	160.673
900.415	158.923
900.543	164.394
900.671	164.519
900.799	157.846
900.927	157.962
901.055	170.519
901.183	170.875
901.312	167.500
901.440	153.779
901.568	159.798
901.696	157.894
901.824	156.481
901.952	155.808
902.080	165.490
902.208	160.750
902.337	169.365
902.465	158.221
902.593	174.481
902.721	184.163
902.849	182.356
902.977	164.317
903.105	161.827
903.233	165.644
903.362	158.740
903.490	168.817
903.618	162.692
903.746	155.510
903.874	165.385
904.002	161.942
904.130	170.894
904.258	155.712
904.387	165.808
904.515	156.144
904.643	164.375
904.771	159.702
904.899	163.154
905.027	163.760
905.155	160.356
905.283	154.798
905.412	175.260
905.540	162.971
905.668	163.885
905.796	161.913
905.924	160.683
906.052	163.615
906.180	167.817
906.308	159.731
906.437	159.077
906.565	164.433
906.693	169.019
906.821	158.731
906.949	161.240
907.077	154.837
907.205	168.635
907.333	155.029
907.462	157.577
907.590	161.183
907.718	159.135
907.846	167.365
907.974	159.385
908.102	160.894
908.230	166.385
908.358	160.769
908.487	153.433
908.615	172.481
908.743	170.923
908.871	160.577
908.999	159.644
909.127	163.337
909.255	172.337
909.383	158.885
909.512	156.817
909.640	175.048
909.768	159.990
909.896	168.596
910.024	166.827
910.152	172.769
910.280	168.173
910.408	159.038
910.537	159.548
910.665	165.346
910.793	165.462
910.921	168.327
911.049	173.462
911.177	173.058
911.305	166.048
911.433	186.394
911.562	171.125
911.690	163.596
911.818	166.510
911.946	164.308
912.074	172.260
912.202	163.721
912.330	180.827
912.458	159.452
912.587	167.288
912.715	170.135
912.843	178.894
912.971	168.673
913.099	184.279
913.227	170.567
913.355	169.240
913.483	180.298
913.612	177.654
913.740	198.731
913.868	172.500
