sample15h_at_750.00nm_cut_at_1060.50Y_01.dat
19.06.2023
11:22:47
cut middle at Y: 1060.50
top cursor: 1109 down cursor: 1012 mean of: 97 lines , 2560 datapoints
wavelength(nm)	intensity[arb. units]
585.996	773.732
586.124	755.289
586.252	746.515
586.380	750.371
586.508	760.918
586.637	754.763
586.765	759.866
586.893	750.124
587.021	764.134
587.149	762.907
587.277	764.247
587.405	768.216
587.533	762.691
587.662	763.474
587.790	770.227
587.918	767.000
588.046	774.309
588.174	770.691
588.302	774.907
588.430	767.072
588.558	775.443
588.687	773.928
588.815	781.165
588.943	782.608
589.071	776.866
589.199	783.979
589.327	777.784
589.455	773.113
589.583	783.454
589.712	787.258
589.840	784.196
589.968	782.216
590.096	790.711
590.224	789.619
590.352	784.289
590.480	787.680
590.608	792.309
590.737	778.969
590.865	787.814
590.993	786.041
591.121	797.845
591.249	794.485
591.377	801.021
591.505	798.608
591.633	798.526
591.762	809.392
591.890	808.649
592.018	798.845
592.146	800.000
592.274	801.526
592.402	791.784
592.530	806.588
592.658	802.526
592.787	808.330
592.915	792.258
593.043	804.041
593.171	805.784
593.299	810.835
593.427	808.299
593.555	801.113
593.683	798.423
593.812	805.856
593.940	805.918
594.068	808.773
594.196	806.495
594.324	812.876
594.452	806.515
594.580	816.206
594.708	819.722
594.837	817.340
594.965	814.155
595.093	817.639
595.221	819.371
595.349	820.990
595.477	827.175
595.605	824.845
595.733	824.371
595.862	822.000
595.990	817.866
596.118	828.443
596.246	834.907
596.374	824.155
596.502	825.722
596.630	835.186
596.758	835.216
596.887	839.268
597.015	835.639
597.143	837.577
597.271	835.670
597.399	837.330
597.527	844.660
597.655	840.278
597.783	839.876
597.912	832.546
598.040	846.505
598.168	839.670
598.296	837.680
598.424	840.340
598.552	842.557
598.680	838.639
598.808	838.000
598.937	842.722
599.065	843.454
599.193	841.588
599.321	829.557
599.449	840.103
599.577	839.784
599.705	842.196
599.833	846.794
599.962	839.082
600.090	841.608
600.218	845.278
600.346	842.557
600.474	845.082
600.602	844.289
600.730	845.258
600.858	846.515
600.987	844.340
601.115	848.835
601.243	848.082
601.371	841.134
601.499	853.876
601.627	840.505
601.755	854.557
601.883	861.938
602.012	861.670
602.140	860.113
602.268	867.907
602.396	857.773
602.524	867.124
602.652	861.443
602.780	869.814
602.908	858.371
603.037	869.155
603.165	861.938
603.293	874.443
603.421	880.546
603.549	872.660
603.677	887.258
603.805	873.021
603.933	887.361
604.062	884.928
604.190	896.660
604.318	884.299
604.446	889.835
604.574	886.598
604.702	891.794
604.830	887.876
604.958	897.186
605.087	904.175
605.215	900.897
605.343	901.825
605.471	913.423
605.599	901.227
605.727	919.649
605.855	911.505
605.983	907.124
606.112	916.773
606.240	919.454
606.368	920.165
606.496	914.588
606.624	914.495
606.752	915.979
606.880	916.619
607.008	919.330
607.137	923.278
607.265	916.278
607.393	933.979
607.521	923.814
607.649	917.794
607.777	913.330
607.905	921.536
608.033	923.299
608.162	917.155
608.290	922.629
608.418	934.474
608.546	920.629
608.674	923.216
608.802	927.753
608.930	927.660
609.058	918.216
609.187	918.732
609.315	923.598
609.443	920.608
609.571	914.907
609.699	923.082
609.827	912.680
609.955	918.701
610.083	924.918
610.212	932.268
610.340	925.278
610.468	917.464
610.596	923.515
610.724	917.753
610.852	918.567
610.980	919.041
611.108	932.495
611.237	913.629
611.365	922.237
611.493	924.619
611.621	923.144
611.749	931.928
611.877	923.474
612.005	923.918
612.133	923.072
612.262	923.577
612.390	933.773
612.518	931.588
612.646	934.938
612.774	925.629
612.902	937.052
613.030	938.577
613.158	929.639
613.287	945.000
613.415	948.041
613.543	940.784
613.671	939.031
613.799	946.680
613.927	947.206
614.055	947.691
614.183	943.454
614.312	946.588
614.440	949.619
614.568	948.423
614.696	952.938
614.824	953.608
614.952	955.495
615.080	962.577
615.208	965.979
615.337	961.392
615.465	951.505
615.593	955.711
615.721	958.268
615.849	956.979
615.977	972.258
616.105	961.093
616.233	966.474
616.362	973.505
616.490	968.381
616.618	971.206
616.746	962.773
616.874	976.237
617.002	972.464
617.130	971.649
617.258	968.680
617.387	964.588
617.515	970.835
617.643	979.165
617.771	977.866
617.899	963.814
618.027	969.990
618.155	962.402
618.283	973.041
618.412	973.103
618.540	971.082
618.668	976.794
618.796	972.392
618.924	979.113
619.052	984.722
619.180	976.856
619.308	984.082
619.437	979.979
619.565	981.278
619.693	974.629
619.821	977.546
619.949	982.876
620.077	988.948
620.205	973.711
620.333	980.691
620.462	1002.732
620.590	989.351
620.718	988.577
620.846	985.072
620.974	995.619
621.102	988.474
621.230	984.505
621.358	985.031
621.487	983.711
621.615	986.351
621.743	997.948
621.871	996.464
621.999	989.742
622.127	985.711
622.255	977.598
622.383	988.526
622.512	995.124
622.640	993.763
622.768	990.423
622.896	988.495
623.024	981.289
623.152	995.629
623.280	981.835
623.408	986.021
623.537	993.485
623.665	997.856
623.793	994.165
623.921	988.144
624.049	992.536
624.177	991.536
624.305	994.691
624.433	993.093
624.562	985.619
624.690	991.351
624.818	984.505
624.946	992.330
625.074	985.753
625.202	988.546
625.330	993.660
625.458	991.062
625.587	989.299
625.715	990.268
625.843	978.722
625.971	986.062
626.099	983.835
626.227	998.928
626.355	985.711
626.483	995.423
626.612	992.320
626.740	986.227
626.868	1000.072
626.996	992.866
627.124	985.794
627.252	987.330
627.380	974.753
627.508	981.082
627.637	982.670
627.765	991.031
627.893	992.052
628.021	983.742
628.149	994.701
628.277	986.773
628.405	997.485
628.533	988.670
628.662	978.124
628.790	993.464
628.918	982.866
629.046	979.897
629.174	976.351
629.302	988.588
629.430	989.082
629.558	985.711
629.687	984.608
629.815	987.629
629.943	995.835
630.071	989.216
630.199	989.742
630.327	997.680
630.455	996.381
630.583	995.309
630.712	1001.918
630.840	987.567
630.968	1004.299
631.096	995.041
631.224	994.392
631.352	990.629
631.480	997.515
631.608	990.546
631.737	981.763
631.865	1006.763
631.993	998.330
632.121	987.856
632.249	1004.804
632.377	1000.835
632.505	995.000
632.633	986.938
632.762	996.567
632.890	992.175
633.018	997.247
633.146	989.505
633.274	999.289
633.402	990.175
633.530	992.381
633.658	990.103
633.787	988.330
633.915	991.072
634.043	983.598
634.171	990.897
634.299	999.588
634.427	989.278
634.555	994.649
634.683	984.371
634.812	981.948
634.940	982.113
635.068	975.536
635.196	983.546
635.324	994.876
635.452	980.000
635.580	975.814
635.708	982.103
635.837	972.753
635.965	972.557
636.093	973.155
636.221	969.526
636.349	972.010
636.477	975.608
636.605	973.845
636.733	970.866
636.862	960.536
636.990	961.247
637.118	966.206
637.246	960.887
637.374	968.454
637.502	961.567
637.630	967.351
637.758	956.247
637.887	962.876
638.015	961.216
638.143	956.928
638.271	951.371
638.399	944.814
638.527	944.485
638.655	953.598
638.783	949.588
638.912	951.680
639.040	950.856
639.168	946.691
639.296	947.907
639.424	943.247
639.552	945.371
639.680	941.289
639.808	941.268
639.937	932.825
640.065	944.567
640.193	942.856
640.321	947.711
640.449	939.598
640.577	940.536
640.705	931.124
640.833	937.629
640.962	932.526
641.090	947.124
641.218	944.196
641.346	931.247
641.474	934.588
641.602	937.454
641.730	936.660
641.858	938.608
641.987	933.742
642.115	940.381
642.243	931.876
642.371	938.794
642.499	923.897
642.627	928.402
642.755	932.959
642.883	943.773
643.012	931.216
643.140	939.897
643.268	926.144
643.396	931.680
643.524	935.433
643.652	934.619
643.780	931.361
643.908	937.474
644.037	933.629
644.165	930.722
644.293	933.371
644.421	931.979
644.549	942.742
644.677	942.608
644.805	931.804
644.933	938.031
645.062	940.495
645.190	921.258
645.318	929.557
645.446	939.186
645.574	927.433
645.702	932.392
645.830	927.392
645.958	934.371
646.087	938.887
646.215	937.433
646.343	922.392
646.471	930.835
646.599	924.897
646.727	926.330
646.855	927.856
646.983	923.753
647.112	920.155
647.240	933.361
647.368	921.608
647.496	919.010
647.624	918.814
647.752	916.979
647.880	918.258
648.008	917.691
648.137	904.887
648.265	902.412
648.393	910.423
648.521	911.278
648.649	910.196
648.777	897.093
648.905	906.856
649.033	898.887
649.162	900.392
649.290	894.268
649.418	896.825
649.546	891.392
649.674	901.897
649.802	905.660
649.930	899.515
650.058	889.381
650.187	885.237
650.315	900.536
650.443	880.258
650.571	885.268
650.699	886.082
650.827	888.959
650.955	882.330
651.083	882.072
651.212	880.773
651.340	882.124
651.468	878.412
651.596	878.969
651.724	880.402
651.852	863.392
651.980	874.464
652.108	877.619
652.237	871.887
652.365	864.113
652.493	867.660
652.621	867.948
652.749	871.361
652.877	870.072
653.005	867.598
653.133	871.598
653.262	861.784
653.390	864.495
653.518	861.072
653.646	859.918
653.774	862.629
653.902	865.237
654.030	853.258
654.158	849.959
654.287	856.629
654.415	852.423
654.543	856.268
654.671	851.258
654.799	851.268
654.927	852.227
655.055	843.155
655.183	842.887
655.312	831.227
655.440	848.062
655.568	842.526
655.696	838.113
655.824	842.794
655.952	838.268
656.080	823.598
656.208	844.381
656.337	835.454
656.465	837.907
656.593	830.113
656.721	831.835
656.849	831.175
656.977	818.134
657.105	830.464
657.233	822.979
657.362	817.753
657.490	822.175
657.618	824.258
657.746	822.258
657.874	813.237
658.002	816.320
658.130	810.113
658.258	813.237
658.387	815.546
658.515	806.598
658.643	811.454
658.771	814.216
658.899	799.691
659.027	807.804
659.155	801.639
659.283	794.794
659.412	797.969
659.540	798.526
659.668	805.402
659.796	792.948
659.924	792.711
660.052	799.588
660.180	798.979
660.308	792.082
660.437	792.753
660.565	790.598
660.693	788.938
660.821	789.392
660.949	799.206
661.077	782.330
661.205	786.649
661.333	786.268
661.462	784.299
661.590	786.031
661.718	776.887
661.846	785.742
661.974	789.577
662.102	779.227
662.230	781.381
662.358	771.258
662.487	774.454
662.615	770.495
662.743	774.918
662.871	774.402
662.999	771.206
663.127	766.619
663.255	773.887
663.383	774.773
663.512	774.928
663.640	764.278
663.768	766.010
663.896	764.722
664.024	767.629
664.152	760.794
664.280	766.113
664.408	762.546
664.537	769.351
664.665	766.289
664.793	760.835
664.921	755.165
665.049	756.155
665.177	761.866
665.305	757.557
665.433	756.474
665.562	759.423
665.690	754.474
665.818	750.227
665.946	747.763
666.074	751.309
666.202	754.485
666.330	753.835
666.458	746.093
666.587	748.124
666.715	752.505
666.843	754.784
666.971	743.381
667.099	747.691
667.227	749.928
667.355	753.598
667.483	742.660
667.612	744.072
667.740	736.711
667.868	738.948
667.996	735.722
668.124	742.216
668.252	735.515
668.380	726.289
668.508	737.979
668.637	739.351
668.765	735.680
668.893	735.381
669.021	725.196
669.149	728.155
669.277	719.175
669.405	718.969
669.533	726.196
669.662	723.742
669.790	717.495
669.918	724.402
670.046	724.052
670.174	713.041
670.302	721.979
670.430	708.144
670.558	715.505
670.687	709.567
670.815	703.835
670.943	710.835
671.071	708.866
671.199	698.062
671.327	697.959
671.455	703.918
671.583	700.948
671.712	699.691
671.840	695.887
671.968	695.082
672.096	699.577
672.224	695.557
672.352	688.691
672.480	688.959
672.608	691.361
672.737	683.485
672.865	680.186
672.993	684.474
673.121	680.495
673.249	677.412
673.377	674.773
673.505	680.103
673.633	671.165
673.762	671.907
673.890	672.423
674.018	671.268
674.146	666.227
674.274	665.000
674.402	665.577
674.530	666.567
674.658	662.165
674.787	656.052
674.915	658.990
675.043	658.423
675.171	656.474
675.299	653.763
675.427	654.196
675.555	655.835
675.683	643.237
675.812	647.175
675.940	639.340
676.068	648.732
676.196	636.082
676.324	635.794
676.452	640.093
676.580	638.536
676.708	633.113
676.837	640.072
676.965	633.155
677.093	636.732
677.221	629.546
677.349	624.443
677.477	629.588
677.605	620.371
677.733	628.907
677.862	617.433
677.990	622.763
678.118	618.505
678.246	610.866
678.374	612.299
678.502	614.278
678.630	607.351
678.758	610.124
678.887	605.000
679.015	622.155
679.143	607.691
679.271	607.577
679.399	603.629
679.527	599.784
679.655	607.835
679.783	603.155
679.912	596.959
680.040	597.186
680.168	595.144
680.296	592.000
680.424	590.577
680.552	590.619
680.680	591.443
680.808	587.381
680.937	591.649
681.065	594.928
681.193	587.536
681.321	586.320
681.449	585.979
681.577	579.660
681.705	579.763
681.833	580.361
681.962	579.340
682.090	581.670
682.218	584.918
682.346	575.959
682.474	581.691
682.602	580.577
682.730	572.093
682.858	577.423
682.987	571.155
683.115	568.670
683.243	573.784
683.371	569.041
683.499	569.928
683.627	574.701
683.755	561.402
683.883	568.021
684.012	563.299
684.140	562.557
684.268	556.938
684.396	564.670
684.524	560.299
684.652	564.206
684.780	566.278
684.908	559.247
685.037	559.186
685.165	557.948
685.293	553.175
685.421	555.773
685.549	554.814
685.677	555.144
685.805	550.722
685.933	550.608
686.062	548.979
686.190	547.691
686.318	554.052
686.446	547.433
686.574	551.196
686.702	555.103
686.830	545.711
686.958	545.639
687.087	554.784
687.215	539.196
687.343	543.031
687.471	546.876
687.599	544.021
687.727	539.969
687.855	543.144
687.983	542.907
688.112	535.443
688.240	534.814
688.368	537.052
688.496	538.804
688.624	534.608
688.752	537.794
688.880	534.742
689.008	535.371
689.137	542.175
689.265	528.062
689.393	533.938
689.521	532.660
689.649	528.649
689.777	527.866
689.905	523.196
690.033	525.907
690.162	522.979
690.290	527.598
690.418	516.392
690.546	517.557
690.674	518.227
690.802	511.680
690.930	508.175
691.058	511.784
691.187	509.691
691.315	512.041
691.443	514.340
691.571	508.082
691.699	506.433
691.827	504.289
691.955	506.835
692.083	501.485
692.212	505.588
692.340	501.412
692.468	508.247
692.596	496.701
692.724	498.340
692.852	485.010
692.980	493.732
693.108	488.041
693.237	489.443
693.365	495.433
693.493	486.753
693.621	488.907
693.749	487.227
693.877	480.412
694.005	480.835
694.133	484.299
694.262	482.515
694.390	481.567
694.518	474.402
694.646	472.639
694.774	476.351
694.902	464.031
695.030	476.897
695.158	475.938
695.287	463.031
695.415	469.134
695.543	469.588
695.671	466.546
695.799	464.660
695.927	460.845
696.055	459.639
696.183	466.299
696.312	460.103
696.440	457.175
696.568	462.753
696.696	457.247
696.824	452.361
696.952	454.918
697.080	452.134
697.208	458.433
697.337	447.948
697.465	453.021
697.593	447.278
697.721	439.289
697.849	451.196
697.977	443.206
698.105	439.258
698.233	447.773
698.362	444.866
698.490	446.082
698.618	444.402
698.746	438.103
698.874	436.278
699.002	440.072
699.130	431.289
699.258	442.567
699.387	433.546
699.515	433.351
699.643	425.670
699.771	426.082
699.899	433.392
700.027	429.340
700.155	433.361
700.283	424.000
700.412	417.031
700.540	424.773
700.668	419.918
700.796	421.392
700.924	418.021
701.052	416.639
701.180	417.722
701.308	416.557
701.437	416.351
701.565	412.144
701.693	410.814
701.821	411.722
701.949	409.814
702.077	411.268
702.205	408.938
702.333	410.082
702.462	406.938
702.590	401.381
702.718	399.515
702.846	402.381
702.974	405.278
703.102	400.773
703.230	398.876
703.358	394.763
703.487	393.082
703.615	395.763
703.743	389.206
703.871	393.072
703.999	389.237
704.127	389.639
704.255	382.485
704.383	387.515
704.512	384.948
704.640	386.567
704.768	380.289
704.896	383.928
705.024	373.722
705.152	377.186
705.280	382.536
705.408	376.557
705.537	374.371
705.665	373.680
705.793	374.639
705.921	369.330
706.049	369.598
706.177	364.825
706.305	374.722
706.433	368.629
706.562	365.454
706.690	366.474
706.818	366.845
706.946	365.938
707.074	363.856
707.202	360.196
707.330	360.763
707.458	361.711
707.587	356.340
707.715	356.866
707.843	353.907
707.971	355.072
708.099	353.474
708.227	352.206
708.355	354.392
708.483	355.258
708.612	353.670
708.740	350.649
708.868	350.062
708.996	346.155
709.124	351.825
709.252	345.557
709.380	345.835
709.508	337.784
709.637	343.309
709.765	338.660
709.893	338.794
710.021	340.062
710.149	339.784
710.277	341.299
710.405	340.052
710.533	336.206
710.662	336.361
710.790	337.577
710.918	333.526
711.046	335.103
711.174	340.031
711.302	334.175
711.430	332.134
711.558	336.711
711.687	338.103
711.815	331.113
711.943	330.660
712.071	332.144
712.199	328.701
712.327	321.598
712.455	327.845
712.583	329.680
712.712	329.392
712.840	327.959
712.968	325.052
713.096	328.289
713.224	320.062
713.352	325.557
713.480	322.577
713.608	319.258
713.737	323.196
713.865	319.732
713.993	321.969
714.121	318.608
714.249	321.835
714.377	315.186
714.505	314.825
714.633	314.948
714.762	318.608
714.890	314.247
715.018	316.722
715.146	311.289
715.274	309.371
715.402	311.536
715.530	309.608
715.658	310.402
715.787	307.928
715.915	310.237
716.043	305.588
716.171	311.268
716.299	312.969
716.427	306.381
716.555	309.639
716.683	305.835
716.812	304.990
716.940	312.268
717.068	307.351
717.196	302.093
717.324	307.124
717.452	301.845
717.580	299.938
717.708	306.186
717.837	299.887
717.965	296.887
718.093	301.485
718.221	294.701
718.349	296.546
718.477	297.825
718.605	294.691
718.733	295.649
718.862	293.649
718.990	292.969
719.118	290.278
719.246	287.082
719.374	290.608
719.502	291.186
719.630	287.608
719.758	293.670
719.887	287.691
720.015	287.804
720.143	283.474
720.271	290.247
720.399	287.866
720.527	283.186
720.655	282.577
720.783	285.598
720.912	283.072
721.040	283.536
721.168	278.155
721.296	278.649
721.424	282.237
721.552	279.711
721.680	279.144
721.808	274.031
721.937	279.021
722.065	275.072
722.193	271.907
722.321	274.505
722.449	269.619
722.577	276.794
722.705	271.804
722.833	274.165
722.962	270.175
723.090	266.052
723.218	267.990
723.346	271.866
723.474	265.608
723.602	261.268
723.730	262.773
723.858	268.928
723.987	263.567
724.115	266.175
724.243	259.237
724.371	263.794
724.499	257.062
724.627	260.691
724.755	260.165
724.883	257.588
725.012	255.598
725.140	254.711
725.268	259.526
725.396	257.825
725.524	256.773
725.652	253.979
725.780	249.052
725.908	251.784
726.037	250.969
726.165	253.701
726.293	244.247
726.421	254.907
726.549	247.175
726.677	252.113
726.805	245.454
726.933	248.216
727.062	244.278
727.190	244.351
727.318	245.474
727.446	242.402
727.574	250.546
727.702	250.412
727.830	242.701
727.958	241.021
728.087	240.000
728.215	239.969
728.343	240.515
728.471	244.144
728.599	238.351
728.727	241.660
728.855	246.052
728.983	240.557
729.112	235.948
729.240	238.155
729.368	232.082
729.496	237.814
729.624	236.722
729.752	237.258
729.880	234.278
730.008	236.897
730.137	229.278
730.265	235.680
730.393	231.845
730.521	230.536
730.649	233.381
730.777	228.887
730.905	228.299
731.033	225.247
731.162	228.237
731.290	223.990
731.418	227.031
731.546	227.289
731.674	223.278
731.802	223.619
731.930	221.381
732.058	224.309
732.187	223.134
732.315	226.784
732.443	227.567
732.571	221.866
732.699	227.649
732.827	219.392
732.955	219.155
733.083	219.062
733.212	223.557
733.340	222.031
733.468	217.856
733.596	217.423
733.724	220.660
733.852	217.711
733.980	221.814
734.108	218.660
734.237	217.557
734.365	216.093
734.493	217.495
734.621	218.072
734.749	215.402
734.877	215.031
735.005	214.814
735.133	216.660
735.262	211.041
735.390	213.753
735.518	213.000
735.646	212.753
735.774	214.268
735.902	213.856
736.030	214.711
736.158	215.412
736.287	209.340
736.415	214.134
736.543	212.247
736.671	209.495
736.799	210.794
736.927	205.237
737.055	207.392
737.183	209.794
737.312	207.464
737.440	209.536
737.568	212.588
737.696	210.237
737.824	207.155
737.952	210.454
738.080	207.794
738.208	205.845
738.337	205.938
738.465	206.175
738.593	200.825
738.721	204.990
738.849	207.804
738.977	204.784
739.105	204.031
739.233	200.948
739.362	202.392
739.490	202.742
739.618	200.567
739.746	206.443
739.874	201.938
740.002	202.598
740.130	199.021
740.258	201.979
740.387	198.443
740.515	204.835
740.643	204.206
740.771	201.742
740.899	198.237
741.027	196.227
741.155	200.175
741.283	199.196
741.412	194.825
741.540	198.072
741.668	200.155
741.796	197.577
741.924	198.969
742.052	198.052
742.180	197.237
742.308	194.144
742.437	198.155
742.565	192.938
742.693	195.639
742.821	194.608
742.949	192.742
743.077	193.711
743.205	195.670
743.333	193.227
743.462	194.103
743.590	190.433
743.718	193.175
743.846	193.082
743.974	192.505
744.102	190.670
744.230	192.515
744.358	192.052
744.487	190.443
744.615	188.423
744.743	191.784
744.871	188.371
744.999	185.670
745.127	185.835
745.255	187.052
745.383	187.485
745.512	187.474
745.640	187.784
745.768	184.784
745.896	184.031
746.024	185.557
746.152	187.299
746.280	186.381
746.408	183.608
746.537	187.515
746.665	187.433
746.793	184.649
746.921	186.722
747.049	183.247
747.177	185.268
747.305	182.186
747.433	180.175
747.562	182.052
747.690	181.835
747.818	181.381
747.946	181.990
748.074	181.918
748.202	182.031
748.330	180.825
748.458	179.598
748.587	178.649
748.715	176.485
748.843	181.113
748.971	178.134
749.099	178.835
749.227	173.619
749.355	178.134
749.483	176.289
749.612	176.351
749.740	176.536
749.868	175.845
749.996	174.082
750.124	175.866
750.252	174.309
750.380	174.052
750.508	176.619
750.637	174.876
750.765	175.619
750.893	175.835
751.021	174.526
751.149	174.711
751.277	174.722
751.405	175.371
751.533	173.113
751.662	179.361
751.790	176.227
751.918	175.701
752.046	171.856
752.174	169.701
752.302	172.804
752.430	170.443
752.558	172.031
752.687	166.443
752.815	175.155
752.943	170.526
753.071	169.268
753.199	170.753
753.327	167.629
753.455	167.856
753.583	169.227
753.712	169.247
753.840	168.082
753.968	171.412
754.096	168.299
754.224	168.918
754.352	164.814
754.480	166.845
754.608	165.371
754.737	166.526
754.865	166.691
754.993	167.155
755.121	164.845
755.249	163.320
755.377	164.392
755.505	165.000
755.633	165.237
755.762	162.010
755.890	165.423
756.018	163.567
756.146	162.196
756.274	162.959
756.402	163.876
756.530	162.412
756.658	163.371
756.787	162.113
756.915	158.948
757.043	159.722
757.171	160.825
757.299	161.845
757.427	158.103
757.555	158.711
757.683	159.258
757.812	159.103
757.940	159.134
758.068	159.959
758.196	159.670
758.324	158.515
758.452	158.247
758.580	154.969
758.708	160.093
758.837	155.485
758.965	156.309
759.093	156.031
759.221	157.124
759.349	156.515
759.477	157.381
759.605	154.258
759.733	157.825
759.862	157.454
759.990	153.186
760.118	152.866
760.246	153.825
760.374	152.598
760.502	152.443
760.630	153.691
760.758	152.948
760.887	151.299
761.015	150.113
761.143	149.773
761.271	148.433
761.399	152.742
761.527	153.351
761.655	149.010
761.783	149.804
761.912	149.691
762.040	151.186
762.168	149.649
762.296	148.412
762.424	150.794
762.552	147.907
762.680	145.536
762.808	146.598
762.937	149.722
763.065	143.918
763.193	150.938
763.321	147.557
763.449	144.928
763.577	144.959
763.705	145.711
763.833	149.412
763.962	142.505
764.090	145.742
764.218	145.402
764.346	144.619
764.474	144.278
764.602	144.691
764.730	142.515
764.858	146.629
764.987	145.144
765.115	142.794
765.243	144.814
765.371	144.134
765.499	140.680
765.627	144.546
765.755	140.392
765.883	141.588
766.012	141.515
766.140	139.196
766.268	141.629
766.396	142.196
766.524	141.072
766.652	143.814
766.780	141.186
766.908	142.175
767.037	140.948
767.165	141.000
767.293	142.649
767.421	143.588
767.549	139.165
767.677	143.443
767.805	141.423
767.933	140.144
768.062	141.278
768.190	140.412
768.318	142.619
768.446	138.557
768.574	140.608
768.702	141.959
768.830	140.711
768.958	139.134
769.087	141.289
769.215	140.639
769.343	137.856
769.471	140.216
769.599	140.804
769.727	141.041
769.855	138.928
769.983	136.423
770.112	140.763
770.240	141.567
770.368	139.247
770.496	137.082
770.624	136.897
770.752	142.340
770.880	137.619
771.008	139.268
771.137	140.474
771.265	138.186
771.393	138.897
771.521	138.979
771.649	138.206
771.777	136.124
771.905	137.546
772.033	142.866
772.162	139.330
772.290	137.474
772.418	139.814
772.546	139.351
772.674	139.990
772.802	139.825
772.930	137.247
773.058	137.268
773.187	135.856
773.315	140.577
773.443	136.608
773.571	139.381
773.699	135.753
773.827	137.670
773.955	138.691
774.083	138.660
774.212	137.608
774.340	140.351
774.468	133.835
774.596	135.753
774.724	138.515
774.852	137.515
774.980	137.515
775.108	136.237
775.237	133.990
775.365	135.227
775.493	137.639
775.621	136.629
775.749	136.649
775.877	138.361
776.005	136.010
776.133	138.536
776.262	139.464
776.390	134.093
776.518	135.567
776.646	137.299
776.774	135.557
776.902	136.206
777.030	136.557
777.158	136.753
777.287	136.144
777.415	136.619
777.543	135.175
777.671	134.660
777.799	134.165
777.927	137.670
778.055	134.794
778.183	137.608
778.312	134.330
778.440	133.186
778.568	135.433
778.696	134.113
778.824	137.392
778.952	133.887
779.080	132.732
779.208	136.804
779.337	135.000
779.465	134.660
779.593	134.660
779.721	137.062
779.849	134.134
779.977	132.732
780.105	137.711
780.233	133.546
780.362	131.340
780.490	132.701
780.618	132.928
780.746	134.258
780.874	131.784
781.002	132.897
781.130	133.010
781.258	133.206
781.387	134.320
781.515	134.175
781.643	132.608
781.771	132.763
781.899	133.186
782.027	131.629
782.155	132.670
782.283	131.278
782.412	132.856
782.540	131.515
782.668	130.784
782.796	131.299
782.924	132.794
783.052	132.052
783.180	130.763
783.308	132.485
783.437	130.567
783.565	134.299
783.693	130.392
783.821	133.619
783.949	131.619
784.077	130.196
784.205	131.186
784.333	134.784
784.462	131.701
784.590	134.701
784.718	131.124
784.846	130.887
784.974	130.320
785.102	131.619
785.230	132.546
785.358	131.392
785.487	130.134
785.615	127.474
785.743	131.938
785.871	126.990
785.999	131.031
786.127	129.103
786.255	129.722
786.383	131.175
786.512	130.526
786.640	128.072
786.768	129.938
786.896	130.639
787.024	130.887
787.152	128.309
787.280	129.134
787.408	132.299
787.537	128.680
787.665	131.505
787.793	128.402
787.921	131.495
788.049	128.289
788.177	127.010
788.305	126.649
788.433	127.876
788.562	127.598
788.690	128.660
788.818	125.918
788.946	127.753
789.074	126.381
789.202	129.856
789.330	128.052
789.458	128.495
789.587	128.567
789.715	125.258
789.843	126.918
789.971	130.278
790.099	128.371
790.227	125.351
790.355	125.897
790.483	126.247
790.612	125.948
790.740	126.887
790.868	129.485
790.996	127.206
791.124	127.495
791.252	126.897
791.380	129.794
791.508	124.464
791.637	130.278
791.765	127.969
791.893	123.979
792.021	126.206
792.149	124.526
792.277	125.907
792.405	126.175
792.533	127.000
792.662	122.392
792.790	129.186
792.918	126.835
793.046	123.763
793.174	124.515
793.302	124.433
793.430	127.309
793.558	126.722
793.687	125.732
793.815	126.928
793.943	124.866
794.071	121.278
794.199	124.670
794.327	123.031
794.455	122.608
794.583	123.093
794.712	126.619
794.840	122.505
794.968	121.845
795.096	121.897
795.224	124.340
795.352	122.031
795.480	122.402
795.608	125.340
795.737	123.175
795.865	122.299
795.993	121.876
796.121	124.093
796.249	122.021
796.377	120.216
796.505	121.835
796.633	124.907
796.762	121.175
796.890	124.103
797.018	123.825
797.146	121.351
797.274	120.907
797.402	122.278
797.530	121.247
797.658	121.732
797.787	122.464
797.915	123.784
798.043	123.485
798.171	124.577
798.299	120.670
798.427	121.959
798.555	120.124
798.683	121.031
798.812	121.608
798.940	120.175
799.068	121.423
799.196	120.753
799.324	120.670
799.452	122.856
799.580	118.876
799.708	119.639
799.837	121.134
799.965	119.196
800.093	119.876
800.221	119.763
800.349	119.876
800.477	116.722
800.605	118.052
800.733	119.103
800.862	120.897
800.990	121.289
801.118	119.629
801.246	117.907
801.374	117.588
801.502	119.814
801.630	119.588
801.758	117.691
801.887	117.320
802.015	118.680
802.143	119.021
802.271	119.722
802.399	118.670
802.527	117.443
802.655	117.814
802.783	118.227
802.912	119.412
803.040	117.753
803.168	117.876
803.296	117.309
803.424	116.619
803.552	118.155
803.680	116.701
803.808	116.629
803.937	116.464
804.065	117.784
804.193	115.959
804.321	117.412
804.449	117.278
804.577	115.928
804.705	116.969
804.833	115.227
804.962	115.557
805.090	115.361
805.218	116.887
805.346	117.691
805.474	116.670
805.602	116.474
805.730	114.866
805.858	115.608
805.987	114.144
806.115	116.670
806.243	115.206
806.371	114.443
806.499	115.825
806.627	116.165
806.755	117.897
806.883	116.474
807.012	116.835
807.140	114.804
807.268	114.165
807.396	114.979
807.524	115.835
807.652	114.845
807.780	115.835
807.908	115.907
808.037	114.392
808.165	114.526
808.293	115.021
808.421	113.505
808.549	113.907
808.677	114.443
808.805	115.031
808.933	114.907
809.062	114.330
809.190	117.031
809.318	114.536
809.446	114.918
809.574	114.041
809.702	113.588
809.830	113.567
809.958	114.155
810.087	114.969
810.215	117.258
810.343	117.268
810.471	114.979
810.599	114.052
810.727	115.062
810.855	113.289
810.983	113.629
811.112	114.474
811.240	111.361
811.368	113.175
811.496	113.320
811.624	114.526
811.752	112.649
811.880	113.856
812.008	112.423
812.137	111.670
812.265	113.082
812.393	112.330
812.521	113.361
812.649	112.268
812.777	113.887
812.905	113.010
813.033	111.505
813.162	111.536
813.290	114.124
813.418	112.309
813.546	112.948
813.674	112.742
813.802	112.485
813.930	112.289
814.058	111.052
814.187	111.340
814.315	112.258
814.443	111.433
814.571	109.876
814.699	111.732
814.827	112.392
814.955	111.928
815.083	113.062
815.212	112.722
815.340	111.289
815.468	109.639
815.596	111.928
815.724	109.464
815.852	110.680
815.980	109.907
816.108	110.495
816.237	110.887
816.365	112.186
816.493	110.588
816.621	109.711
816.749	111.103
816.877	111.464
817.005	111.629
817.133	111.897
817.262	110.515
817.390	112.660
817.518	111.722
817.646	110.258
817.774	110.485
817.902	112.330
818.030	109.794
818.158	111.907
818.287	112.433
818.415	110.113
818.543	109.361
818.671	110.670
818.799	110.711
818.927	111.381
819.055	110.247
819.183	110.495
819.312	110.505
819.440	111.299
819.568	110.784
819.696	110.052
819.824	109.330
819.952	108.371
820.080	108.072
820.208	108.897
820.337	111.423
820.465	109.423
820.593	109.268
820.721	109.031
820.849	109.103
820.977	108.722
821.105	110.526
821.233	108.897
821.362	108.691
821.490	107.536
821.618	108.340
821.746	107.557
821.874	107.299
822.002	107.093
822.130	108.423
822.258	108.794
822.387	106.825
822.515	109.052
822.643	108.598
822.771	107.371
822.899	109.113
823.027	108.381
823.155	107.443
823.283	108.381
823.412	109.113
823.540	108.340
823.668	108.320
823.796	108.165
823.924	107.856
824.052	108.351
824.180	107.701
824.308	108.567
824.437	108.320
824.565	107.340
824.693	107.959
824.821	107.330
824.949	108.567
825.077	107.526
825.205	105.887
825.333	105.423
825.462	107.340
825.590	105.784
825.718	106.588
825.846	106.567
825.974	107.072
826.102	107.082
826.230	107.794
826.358	107.546
826.487	105.082
826.615	104.474
826.743	105.309
826.871	107.474
826.999	106.825
827.127	106.577
827.255	105.887
827.383	106.134
827.512	105.990
827.640	107.196
827.768	105.711
827.896	106.619
828.024	106.670
828.152	107.309
828.280	106.082
828.408	106.082
828.537	106.412
828.665	106.175
828.793	104.948
828.921	106.289
829.049	105.784
829.177	105.845
829.305	107.206
829.433	106.763
829.562	105.320
829.690	105.536
829.818	106.639
829.946	104.381
830.074	104.433
830.202	105.722
830.330	104.000
830.458	104.546
830.587	106.381
830.715	105.711
830.843	104.649
830.971	104.969
831.099	104.732
831.227	104.536
831.355	104.959
831.483	105.804
831.612	105.237
831.740	107.268
831.868	107.072
831.996	105.804
832.124	106.423
832.252	105.454
832.380	106.216
832.508	104.990
832.637	104.309
832.765	105.918
832.893	106.010
833.021	105.443
833.149	105.784
833.277	104.887
833.405	105.887
833.533	103.124
833.662	103.619
833.790	105.072
833.918	105.598
834.046	105.619
834.174	105.608
834.302	105.113
834.430	104.536
834.558	104.711
834.687	104.639
834.815	104.186
834.943	103.711
835.071	104.753
835.199	104.515
835.327	104.804
835.455	103.979
835.583	104.062
835.712	103.505
835.840	103.825
835.968	103.670
836.096	104.784
836.224	104.103
836.352	104.299
836.480	105.000
836.608	103.660
836.737	104.660
836.865	103.794
836.993	102.825
837.121	104.103
837.249	103.619
837.377	104.670
837.505	102.722
837.633	103.113
837.762	102.814
837.890	103.742
838.018	102.474
838.146	102.835
838.274	103.412
838.402	104.959
838.530	103.825
838.658	102.897
838.787	102.928
838.915	104.000
839.043	104.567
839.171	103.392
839.299	103.237
839.427	103.062
839.555	103.649
839.683	103.722
839.812	104.041
839.940	103.619
840.068	103.144
840.196	103.443
840.324	103.371
840.452	103.340
840.580	102.495
840.708	103.082
840.837	103.340
840.965	102.825
841.093	104.186
841.221	104.361
841.349	104.546
841.477	103.000
841.605	102.392
841.733	102.732
841.862	105.433
841.990	103.691
842.118	102.320
842.246	101.969
842.374	103.464
842.502	103.052
842.630	102.701
842.758	103.412
842.887	103.258
843.015	103.711
843.143	103.670
843.271	103.742
843.399	103.072
843.527	101.897
843.655	102.361
843.783	103.619
843.912	101.918
844.040	103.093
844.168	102.701
844.296	104.526
844.424	104.629
844.552	102.845
844.680	103.072
844.808	103.660
844.937	102.567
845.065	101.763
845.193	102.959
845.321	102.938
845.449	103.515
845.577	102.485
845.705	102.907
845.833	101.701
845.962	102.763
846.090	101.237
846.218	102.990
846.346	104.289
846.474	102.113
846.602	100.670
846.730	102.351
846.858	101.660
846.987	101.742
847.115	102.505
847.243	102.021
847.371	103.433
847.499	101.588
847.627	101.330
847.755	102.258
847.883	101.938
848.012	101.495
848.140	102.897
848.268	101.206
848.396	101.619
848.524	102.392
848.652	102.825
848.780	101.093
848.908	102.144
849.037	101.629
849.165	102.732
849.293	100.567
849.421	102.278
849.549	101.742
849.677	101.052
849.805	102.237
849.933	102.495
850.062	102.124
850.190	100.897
850.318	100.773
850.446	102.052
850.574	101.330
850.702	101.278
850.830	100.753
850.958	101.103
851.087	102.804
851.215	101.515
851.343	101.835
851.471	102.526
851.599	102.278
851.727	102.010
851.855	102.495
851.983	101.402
852.112	100.814
852.240	101.134
852.368	101.701
852.496	100.227
852.624	101.082
852.752	101.082
852.880	101.959
853.008	100.928
853.137	102.309
853.265	101.794
853.393	102.351
853.521	100.289
853.649	100.216
853.777	101.010
853.905	101.392
854.033	100.000
854.162	101.773
854.290	101.165
854.418	99.897
854.546	99.412
854.674	101.165
854.802	99.351
854.930	99.938
855.058	100.371
855.187	102.144
855.315	100.742
855.443	101.247
855.571	101.082
855.699	101.340
855.827	100.381
855.955	99.691
856.083	100.763
856.212	101.165
856.340	101.113
856.468	99.691
856.596	101.753
856.724	101.124
856.852	100.969
856.980	100.196
857.108	99.959
857.237	99.485
857.365	100.784
857.493	101.763
857.621	100.495
857.749	99.515
857.877	99.948
858.005	101.041
858.133	98.928
858.262	100.680
858.390	101.979
858.518	99.649
858.646	99.742
858.774	101.258
858.902	101.196
859.030	100.412
859.158	100.196
859.287	100.124
859.415	99.876
859.543	98.835
859.671	100.247
859.799	100.680
859.927	99.948
860.055	100.041
860.183	99.567
860.312	99.763
860.440	99.443
860.568	100.031
860.696	100.433
860.824	100.546
860.952	99.907
861.080	99.928
861.208	100.216
861.337	99.732
861.465	99.866
861.593	100.835
861.721	100.103
861.849	99.536
861.977	99.227
862.105	100.340
862.233	100.763
862.362	99.918
862.490	98.990
862.618	99.629
862.746	100.072
862.874	100.897
863.002	100.423
863.130	101.000
863.258	101.928
863.387	100.031
863.515	100.505
863.643	99.619
863.771	101.320
863.899	99.660
864.027	100.402
864.155	100.299
864.283	98.773
864.412	99.619
864.540	101.278
864.668	99.598
864.796	100.247
864.924	99.773
865.052	98.546
865.180	99.691
865.308	99.845
865.437	99.464
865.565	98.969
865.693	100.505
865.821	99.907
865.949	101.309
866.077	101.443
866.205	99.825
866.333	99.165
866.462	99.969
866.590	100.443
866.718	99.948
866.846	100.196
866.974	100.928
867.102	97.804
867.230	98.320
867.358	100.082
867.487	99.402
867.615	99.536
867.743	100.227
867.871	99.577
867.999	101.454
868.127	99.412
868.255	100.330
868.383	101.052
868.512	101.289
868.640	100.186
868.768	100.845
868.896	100.361
869.024	100.041
869.152	100.454
869.280	100.330
869.408	100.320
869.537	100.206
869.665	101.278
869.793	99.763
869.921	99.546
870.049	100.144
870.177	99.732
870.305	100.351
870.433	100.588
870.562	100.227
870.690	99.402
870.818	98.711
870.946	100.175
871.074	100.186
871.202	98.588
871.330	100.619
871.458	100.691
871.587	100.835
871.715	99.299
871.843	100.825
871.971	99.990
872.099	98.237
872.227	100.196
872.355	99.474
872.483	99.134
872.612	99.495
872.740	98.897
872.868	100.134
872.996	98.887
873.124	99.320
873.252	101.918
873.380	99.691
873.508	99.608
873.637	99.124
873.765	98.670
873.893	99.907
874.021	100.701
874.149	100.835
874.277	100.835
874.405	100.866
874.533	100.423
874.662	99.165
874.790	100.546
874.918	100.753
875.046	98.588
875.174	99.557
875.302	99.608
875.430	99.155
875.558	100.041
875.687	98.907
875.815	100.433
875.943	100.948
876.071	100.495
876.199	100.619
876.327	100.258
876.455	99.010
876.583	98.711
876.712	99.649
876.840	98.206
876.968	99.464
877.096	100.619
877.224	99.216
877.352	99.155
877.480	99.299
877.608	99.299
877.737	99.505
877.865	97.794
877.993	98.577
878.121	100.557
878.249	102.247
878.377	99.856
878.505	98.639
878.633	100.113
878.762	100.701
878.890	99.134
879.018	98.701
879.146	100.041
879.274	100.598
879.402	101.165
879.530	100.196
879.658	100.175
879.787	99.093
879.915	99.742
880.043	99.330
880.171	98.629
880.299	100.124
880.427	98.289
880.555	100.093
880.683	100.629
880.812	99.907
880.940	98.567
881.068	100.598
881.196	100.000
881.324	99.907
881.452	100.320
881.580	100.134
881.708	99.619
881.837	99.959
881.965	98.660
882.093	99.515
882.221	99.588
882.349	99.897
882.477	100.113
882.605	100.320
882.733	99.144
882.862	100.392
882.990	99.392
883.118	101.124
883.246	100.216
883.374	100.680
883.502	98.330
883.630	100.629
883.758	100.175
883.887	99.216
884.015	101.639
884.143	100.557
884.271	99.155
884.399	98.567
884.527	99.495
884.655	100.186
884.783	101.052
884.912	100.588
885.040	99.454
885.168	99.680
885.296	99.165
885.424	99.412
885.552	99.515
885.680	99.505
885.808	99.722
885.937	101.577
886.065	99.711
886.193	99.495
886.321	99.990
886.449	99.948
886.577	99.763
886.705	99.897
886.833	100.113
886.962	99.629
887.090	100.247
887.218	100.093
887.346	99.701
887.474	100.660
887.602	99.897
887.730	98.773
887.858	100.412
887.987	99.258
888.115	99.289
888.243	99.948
888.371	100.320
888.499	100.856
888.627	99.289
888.755	99.897
888.883	100.340
889.012	99.753
889.140	98.948
889.268	98.680
889.396	99.835
889.524	99.443
889.652	99.753
889.780	99.216
889.908	99.701
890.037	98.515
890.165	98.258
890.293	99.330
890.421	99.093
890.549	101.031
890.677	99.423
890.805	100.268
890.933	99.598
891.062	98.742
891.190	99.794
891.318	100.856
891.446	100.814
891.574	98.505
891.702	99.000
891.830	98.876
891.958	99.495
892.087	100.165
892.215	100.897
892.343	99.814
892.471	99.371
892.599	100.258
892.727	100.763
892.855	100.557
892.983	99.969
893.112	100.402
893.240	101.000
893.368	100.144
893.496	100.969
893.624	99.175
893.752	100.330
893.880	99.351
894.008	99.557
894.137	99.381
894.265	100.711
894.393	99.361
894.521	99.794
894.649	99.938
894.777	99.443
894.905	99.557
895.033	102.175
895.162	100.784
895.290	99.835
895.418	100.887
895.546	101.351
895.674	99.763
895.802	99.268
895.930	99.649
896.058	99.856
896.187	99.979
896.315	100.680
896.443	99.351
896.571	99.979
896.699	101.660
896.827	99.897
896.955	99.247
897.083	99.113
897.212	102.093
897.340	100.216
897.468	98.856
897.596	99.093
897.724	98.773
897.852	99.371
897.980	99.639
898.108	99.691
898.237	99.371
898.365	99.722
898.493	100.526
898.621	100.134
898.749	99.423
898.877	99.670
899.005	99.876
899.133	99.732
899.262	99.186
899.390	98.660
899.518	99.546
899.646	99.464
899.774	100.804
899.902	99.598
900.030	100.546
900.158	100.495
900.287	99.835
900.415	99.649
900.543	99.330
900.671	100.546
900.799	99.567
900.927	100.309
901.055	99.814
901.183	99.454
901.312	100.485
901.440	101.784
901.568	101.711
901.696	99.825
901.824	98.505
901.952	101.072
902.080	99.454
902.208	99.227
902.337	100.392
902.465	100.392
902.593	100.598
902.721	101.969
902.849	101.237
902.977	99.619
903.105	100.237
903.233	100.186
903.362	100.474
903.490	98.299
903.618	99.454
903.746	100.165
903.874	100.804
904.002	101.381
904.130	100.454
904.258	99.464
904.387	100.649
904.515	99.567
904.643	102.134
904.771	101.567
904.899	100.258
905.027	100.000
905.155	100.340
905.283	100.299
905.412	100.021
905.540	100.773
905.668	98.649
905.796	98.031
905.924	100.144
906.052	101.124
906.180	100.175
906.308	98.918
906.437	99.134
906.565	100.619
906.693	99.237
906.821	98.134
906.949	99.536
907.077	99.691
907.205	101.608
907.333	100.010
907.462	101.670
907.590	100.371
907.718	100.124
907.846	100.299
907.974	101.443
908.102	99.887
908.230	99.495
908.358	99.330
908.487	99.103
908.615	100.423
908.743	100.567
908.871	100.763
908.999	100.103
909.127	100.000
909.255	99.381
909.383	99.216
909.512	100.216
909.640	100.773
909.768	102.041
909.896	100.515
910.024	101.072
910.152	101.680
910.280	99.938
910.408	101.021
910.537	101.948
910.665	100.536
910.793	100.835
910.921	100.031
911.049	99.918
911.177	100.598
911.305	101.062
911.433	100.990
911.562	100.979
911.690	100.887
911.818	99.619
911.946	101.722
912.074	100.969
912.202	100.732
912.330	100.062
912.458	102.134
912.587	100.021
912.715	100.649
912.843	101.454
912.971	101.794
913.099	101.165
913.227	101.536
913.355	101.588
913.483	100.402
913.612	100.763
913.740	100.412
913.868	99.536
