sample4h_at_750.00nm_cut_at_1060.50Y_01.dat
19.06.2023
11:07:07
cut middle at Y: 1060.50
top cursor: 1109 down cursor: 1012 mean of: 97 lines , 2560 datapoints
wavelength(nm)	intensity[arb. units]
585.996	883.948
586.124	858.072
586.252	856.361
586.380	856.392
586.508	856.206
586.637	862.990
586.765	860.454
586.893	860.186
587.021	873.598
587.149	868.485
587.277	865.825
587.405	882.515
587.533	867.454
587.662	878.031
587.790	874.320
587.918	878.536
588.046	873.866
588.174	871.330
588.302	874.000
588.430	872.711
588.558	879.021
588.687	878.268
588.815	887.979
588.943	891.402
589.071	887.825
589.199	894.268
589.327	890.464
589.455	882.454
589.583	887.196
589.712	895.485
589.840	886.639
589.968	888.835
590.096	900.155
590.224	898.175
590.352	899.907
590.480	894.629
590.608	899.928
590.737	898.546
590.865	906.165
590.993	912.371
591.121	900.443
591.249	911.216
591.377	909.515
591.505	904.897
591.633	914.113
591.762	915.763
591.890	915.691
592.018	918.258
592.146	916.722
592.274	914.887
592.402	909.938
592.530	910.412
592.658	909.990
592.787	917.464
592.915	915.361
593.043	920.505
593.171	924.124
593.299	927.804
593.427	924.629
593.555	913.515
593.683	919.175
593.812	919.454
593.940	937.113
594.068	940.536
594.196	931.835
594.324	927.186
594.452	941.876
594.580	943.639
594.708	939.165
594.837	940.258
594.965	944.402
595.093	943.598
595.221	945.423
595.349	949.691
595.477	954.299
595.605	951.268
595.733	960.907
595.862	954.268
595.990	959.289
596.118	956.392
596.246	966.526
596.374	960.722
596.502	960.948
596.630	969.258
596.758	965.959
596.887	971.814
597.015	968.691
597.143	973.124
597.271	968.371
597.399	972.649
597.527	967.351
597.655	977.649
597.783	974.299
597.912	972.557
598.040	965.753
598.168	972.773
598.296	966.938
598.424	972.825
598.552	979.753
598.680	969.258
598.808	980.289
598.937	980.454
599.065	979.526
599.193	980.856
599.321	971.175
599.449	981.000
599.577	986.948
599.705	971.021
599.833	982.876
599.962	977.598
600.090	979.103
600.218	983.907
600.346	984.381
600.474	985.691
600.602	982.845
600.730	986.691
600.858	983.082
600.987	994.103
601.115	993.082
601.243	977.763
601.371	988.144
601.499	983.608
601.627	993.907
601.755	1002.670
601.883	1009.309
602.012	1008.691
602.140	1003.093
602.268	1002.856
602.396	1010.773
602.524	1000.000
602.652	1016.907
602.780	1021.990
602.908	1020.598
603.037	1025.629
603.165	1033.010
603.293	1033.753
603.421	1025.577
603.549	1020.546
603.677	1037.897
603.805	1037.732
603.933	1041.247
604.062	1037.309
604.190	1058.258
604.318	1052.278
604.446	1057.557
604.574	1050.392
604.702	1061.866
604.830	1051.515
604.958	1052.247
605.087	1078.753
605.215	1072.680
605.343	1075.155
605.471	1086.835
605.599	1074.629
605.727	1081.639
605.855	1080.309
605.983	1076.361
606.112	1093.196
606.240	1086.691
606.368	1096.660
606.496	1086.835
606.624	1086.186
606.752	1087.443
606.880	1092.433
607.008	1100.278
607.137	1105.856
607.265	1095.278
607.393	1107.938
607.521	1099.804
607.649	1104.990
607.777	1107.237
607.905	1105.371
608.033	1114.237
608.162	1101.773
608.290	1097.495
608.418	1109.505
608.546	1107.804
608.674	1125.639
608.802	1108.680
608.930	1119.062
609.058	1111.866
609.187	1110.113
609.315	1115.619
609.443	1111.031
609.571	1112.433
609.699	1102.804
609.827	1114.175
609.955	1111.464
610.083	1104.835
610.212	1114.577
610.340	1118.402
610.468	1124.649
610.596	1119.794
610.724	1118.454
610.852	1108.134
610.980	1118.948
611.108	1118.722
611.237	1118.794
611.365	1117.423
611.493	1121.918
611.621	1125.247
611.749	1121.845
611.877	1132.052
612.005	1141.619
612.133	1131.515
612.262	1134.144
612.390	1134.784
612.518	1136.536
612.646	1143.258
612.774	1135.680
612.902	1155.505
613.030	1150.299
613.158	1145.454
613.287	1161.557
613.415	1158.835
613.543	1158.320
613.671	1153.680
613.799	1146.938
613.927	1168.309
614.055	1168.588
614.183	1173.485
614.312	1168.340
614.440	1172.412
614.568	1175.000
614.696	1175.825
614.824	1182.010
614.952	1173.969
615.080	1196.629
615.208	1192.515
615.337	1196.433
615.465	1189.021
615.593	1191.443
615.721	1195.608
615.849	1201.052
615.977	1190.804
616.105	1193.546
616.233	1214.629
616.362	1206.567
616.490	1212.536
616.618	1213.485
616.746	1196.206
616.874	1205.928
617.002	1218.206
617.130	1215.103
617.258	1205.608
617.387	1214.938
617.515	1214.969
617.643	1222.464
617.771	1231.814
617.899	1238.598
618.027	1214.670
618.155	1224.134
618.283	1236.835
618.412	1229.134
618.540	1234.619
618.668	1234.196
618.796	1245.186
618.924	1242.608
619.052	1232.052
619.180	1238.856
619.308	1241.742
619.437	1249.010
619.565	1248.773
619.693	1244.485
619.821	1250.381
619.949	1236.021
620.077	1250.660
620.205	1251.794
620.333	1258.237
620.462	1266.124
620.590	1268.495
620.718	1266.247
620.846	1264.773
620.974	1264.247
621.102	1272.392
621.230	1275.000
621.358	1266.186
621.487	1260.918
621.615	1271.763
621.743	1282.928
621.871	1271.268
621.999	1269.588
622.127	1275.196
622.255	1271.165
622.383	1281.680
622.512	1286.268
622.640	1292.794
622.768	1283.000
622.896	1284.711
623.024	1267.784
623.152	1293.268
623.280	1281.443
623.408	1303.175
623.537	1291.505
623.665	1298.649
623.793	1292.309
623.921	1282.979
624.049	1287.845
624.177	1301.412
624.305	1290.608
624.433	1308.206
624.562	1304.268
624.690	1299.258
624.818	1303.948
624.946	1313.825
625.074	1307.722
625.202	1302.010
625.330	1303.866
625.458	1316.557
625.587	1318.495
625.715	1305.485
625.843	1322.062
625.971	1311.165
626.099	1315.000
626.227	1323.773
626.355	1317.990
626.483	1319.041
626.612	1304.619
626.740	1312.021
626.868	1327.402
626.996	1316.093
627.124	1312.031
627.252	1317.938
627.380	1322.495
627.508	1319.186
627.637	1317.052
627.765	1329.856
627.893	1337.722
628.021	1319.742
628.149	1334.526
628.277	1338.289
628.405	1334.196
628.533	1337.918
628.662	1328.567
628.790	1336.660
628.918	1339.402
629.046	1336.000
629.174	1329.897
629.302	1342.732
629.430	1343.268
629.558	1346.010
629.687	1352.495
629.815	1346.526
629.943	1346.289
630.071	1363.330
630.199	1366.103
630.327	1345.402
630.455	1347.515
630.583	1363.278
630.712	1370.062
630.840	1356.093
630.968	1373.041
631.096	1383.371
631.224	1374.361
631.352	1368.021
631.480	1369.041
631.608	1390.113
631.737	1367.814
631.865	1392.175
631.993	1379.639
632.121	1377.144
632.249	1391.361
632.377	1402.866
632.505	1383.887
632.633	1392.113
632.762	1395.186
632.890	1399.887
633.018	1399.247
633.146	1384.608
633.274	1406.340
633.402	1382.660
633.530	1395.340
633.658	1404.701
633.787	1402.124
633.915	1404.216
634.043	1404.876
634.171	1399.804
634.299	1410.876
634.427	1402.660
634.555	1409.784
634.683	1406.216
634.812	1403.856
634.940	1411.990
635.068	1397.660
635.196	1403.515
635.324	1405.876
635.452	1404.691
635.580	1407.351
635.708	1401.031
635.837	1407.804
635.965	1402.856
636.093	1390.928
636.221	1408.773
636.349	1404.247
636.477	1402.206
636.605	1405.979
636.733	1389.103
636.862	1399.639
636.990	1394.186
637.118	1402.186
637.246	1390.155
637.374	1399.309
637.502	1396.268
637.630	1396.526
637.758	1387.093
637.887	1402.938
638.015	1391.526
638.143	1406.423
638.271	1386.742
638.399	1380.278
638.527	1387.546
638.655	1391.103
638.783	1404.155
638.912	1390.165
639.040	1389.639
639.168	1395.515
639.296	1393.402
639.424	1395.041
639.552	1397.144
639.680	1394.206
639.808	1392.464
639.937	1392.113
640.065	1393.928
640.193	1398.227
640.321	1394.876
640.449	1388.299
640.577	1397.206
640.705	1393.247
640.833	1402.010
640.962	1404.959
641.090	1401.887
641.218	1399.000
641.346	1398.557
641.474	1407.897
641.602	1402.711
641.730	1406.268
641.858	1401.784
641.987	1411.464
642.115	1418.196
642.243	1412.825
642.371	1426.784
642.499	1413.784
642.627	1430.392
642.755	1432.103
642.883	1431.526
643.012	1425.742
643.140	1426.567
643.268	1424.278
643.396	1443.505
643.524	1434.330
643.652	1441.165
643.780	1434.258
643.908	1428.155
644.037	1423.567
644.165	1424.381
644.293	1438.897
644.421	1441.216
644.549	1446.237
644.677	1437.567
644.805	1445.526
644.933	1452.340
645.062	1443.206
645.190	1444.887
645.318	1439.433
645.446	1461.093
645.574	1453.773
645.702	1457.577
645.830	1455.588
645.958	1463.794
646.087	1439.845
646.215	1461.711
646.343	1462.155
646.471	1453.557
646.599	1454.021
646.727	1455.474
646.855	1463.340
646.983	1463.495
647.112	1463.474
647.240	1473.186
647.368	1451.536
647.496	1448.371
647.624	1451.856
647.752	1448.763
647.880	1462.546
648.008	1461.918
648.137	1455.732
648.265	1436.495
648.393	1461.660
648.521	1456.402
648.649	1457.856
648.777	1442.392
648.905	1452.495
649.033	1439.763
649.162	1445.845
649.290	1434.351
649.418	1442.660
649.546	1436.175
649.674	1445.588
649.802	1445.433
649.930	1445.680
650.058	1448.567
650.187	1441.474
650.315	1454.454
650.443	1437.876
650.571	1434.680
650.699	1435.010
650.827	1443.845
650.955	1442.454
651.083	1446.887
651.212	1437.474
651.340	1430.588
651.468	1442.392
651.596	1434.515
651.724	1443.856
651.852	1432.412
651.980	1434.495
652.108	1432.381
652.237	1425.351
652.365	1422.536
652.493	1425.526
652.621	1430.680
652.749	1434.330
652.877	1419.237
653.005	1419.938
653.133	1441.588
653.262	1424.010
653.390	1422.371
653.518	1438.320
653.646	1434.959
653.774	1417.320
653.902	1433.814
654.030	1423.196
654.158	1426.402
654.287	1426.021
654.415	1415.495
654.543	1424.134
654.671	1418.845
654.799	1425.237
654.927	1424.742
655.055	1415.959
655.183	1414.196
655.312	1410.392
655.440	1419.928
655.568	1409.907
655.696	1410.804
655.824	1426.598
655.952	1408.959
656.080	1411.928
656.208	1423.907
656.337	1422.814
656.465	1412.186
656.593	1413.165
656.721	1415.134
656.849	1417.010
656.977	1411.000
657.105	1411.309
657.233	1405.649
657.362	1399.247
657.490	1402.412
657.618	1410.639
657.746	1406.412
657.874	1396.814
658.002	1407.000
658.130	1397.072
658.258	1401.113
658.387	1399.309
658.515	1388.876
658.643	1401.021
658.771	1409.928
658.899	1402.948
659.027	1399.381
659.155	1400.340
659.283	1394.835
659.412	1393.918
659.540	1386.485
659.668	1386.134
659.796	1385.577
659.924	1397.052
660.052	1406.464
660.180	1387.742
660.308	1388.093
660.437	1389.660
660.565	1394.691
660.693	1390.423
660.821	1393.835
660.949	1394.546
661.077	1383.464
661.205	1392.289
661.333	1391.402
661.462	1390.918
661.590	1400.206
661.718	1388.464
661.846	1397.546
661.974	1393.763
662.102	1388.155
662.230	1396.299
662.358	1374.887
662.487	1384.938
662.615	1379.052
662.743	1383.247
662.871	1387.577
662.999	1389.619
663.127	1390.670
663.255	1377.031
663.383	1383.144
663.512	1385.546
663.640	1381.526
663.768	1381.443
663.896	1392.289
664.024	1385.804
664.152	1383.103
664.280	1374.124
664.408	1382.289
664.537	1386.866
664.665	1386.897
664.793	1382.856
664.921	1379.371
665.049	1384.175
665.177	1389.680
665.305	1387.433
665.433	1387.165
665.562	1383.454
665.690	1382.928
665.818	1380.887
665.946	1382.742
666.074	1394.722
666.202	1390.629
666.330	1375.649
666.458	1380.742
666.587	1369.454
666.715	1386.010
666.843	1384.412
666.971	1381.247
667.099	1380.670
667.227	1383.948
667.355	1384.649
667.483	1377.742
667.612	1383.845
667.740	1382.052
667.868	1386.722
667.996	1379.711
668.124	1381.845
668.252	1376.536
668.380	1377.876
668.508	1379.381
668.637	1385.093
668.765	1382.680
668.893	1377.103
669.021	1380.216
669.149	1376.649
669.277	1362.113
669.405	1367.320
669.533	1375.021
669.662	1376.536
669.790	1372.680
669.918	1371.546
670.046	1376.670
670.174	1374.938
670.302	1365.639
670.430	1367.485
670.558	1363.454
670.687	1363.763
670.815	1360.773
670.943	1364.227
671.071	1351.082
671.199	1367.196
671.327	1357.536
671.455	1359.237
671.583	1362.454
671.712	1356.649
671.840	1341.577
671.968	1346.165
672.096	1346.711
672.224	1335.237
672.352	1327.948
672.480	1337.103
672.608	1339.155
672.737	1329.979
672.865	1331.247
672.993	1326.021
673.121	1326.557
673.249	1331.505
673.377	1317.897
673.505	1330.330
673.633	1311.536
673.762	1321.619
673.890	1324.742
674.018	1317.124
674.146	1315.887
674.274	1308.969
674.402	1314.753
674.530	1311.227
674.658	1309.629
674.787	1300.082
674.915	1293.928
675.043	1301.773
675.171	1298.505
675.299	1291.474
675.427	1291.041
675.555	1292.804
675.683	1286.443
675.812	1290.010
675.940	1272.206
676.068	1274.134
676.196	1270.082
676.324	1277.948
676.452	1266.278
676.580	1276.845
676.708	1267.258
676.837	1278.000
676.965	1268.031
677.093	1276.577
677.221	1263.082
677.349	1258.814
677.477	1257.021
677.605	1249.619
677.733	1257.588
677.862	1261.505
677.990	1250.216
678.118	1246.876
678.246	1247.134
678.374	1236.804
678.502	1250.577
678.630	1235.990
678.758	1243.175
678.887	1242.340
679.015	1242.773
679.143	1233.526
679.271	1246.371
679.399	1239.165
679.527	1239.639
679.655	1238.186
679.783	1230.670
679.912	1228.814
680.040	1233.990
680.168	1237.041
680.296	1220.062
680.424	1229.608
680.552	1214.577
680.680	1227.938
680.808	1224.340
680.937	1221.340
681.065	1219.649
681.193	1218.804
681.321	1218.742
681.449	1222.660
681.577	1220.113
681.705	1212.979
681.833	1216.753
681.962	1217.979
682.090	1219.402
682.218	1210.237
682.346	1210.392
682.474	1211.598
682.602	1212.216
682.730	1215.546
682.858	1210.381
682.987	1214.082
683.115	1200.381
683.243	1212.732
683.371	1217.918
683.499	1198.165
683.627	1215.959
683.755	1204.082
683.883	1195.660
684.012	1199.825
684.140	1192.907
684.268	1198.175
684.396	1210.000
684.524	1197.082
684.652	1205.825
684.780	1207.959
684.908	1194.536
685.037	1194.000
685.165	1207.515
685.293	1199.474
685.421	1200.515
685.549	1198.330
685.677	1204.701
685.805	1198.289
685.933	1212.536
686.062	1194.505
686.190	1194.825
686.318	1198.186
686.446	1193.320
686.574	1192.763
686.702	1208.072
686.830	1208.608
686.958	1204.000
687.087	1207.474
687.215	1191.258
687.343	1188.423
687.471	1191.773
687.599	1192.959
687.727	1183.598
687.855	1196.887
687.983	1182.443
688.112	1191.608
688.240	1182.536
688.368	1185.526
688.496	1185.515
688.624	1181.979
688.752	1175.588
688.880	1181.763
689.008	1189.907
689.137	1182.938
689.265	1180.381
689.393	1168.732
689.521	1170.866
689.649	1172.948
689.777	1168.052
689.905	1171.619
690.033	1163.918
690.162	1158.711
690.290	1154.784
690.418	1166.320
690.546	1159.990
690.674	1163.515
690.802	1154.711
690.930	1152.340
691.058	1156.041
691.187	1148.392
691.315	1148.021
691.443	1139.742
691.571	1148.216
691.699	1136.753
691.827	1146.340
691.955	1142.649
692.083	1138.402
692.212	1125.557
692.340	1131.010
692.468	1126.103
692.596	1120.773
692.724	1131.814
692.852	1119.144
692.980	1113.340
693.108	1112.134
693.237	1110.423
693.365	1111.814
693.493	1111.021
693.621	1111.351
693.749	1106.289
693.877	1097.608
694.005	1093.402
694.133	1099.371
694.262	1091.247
694.390	1093.454
694.518	1085.814
694.646	1086.381
694.774	1084.093
694.902	1080.052
695.030	1092.412
695.158	1071.969
695.287	1079.361
695.415	1074.206
695.543	1074.402
695.671	1076.567
695.799	1067.515
695.927	1068.474
696.055	1064.113
696.183	1071.371
696.312	1064.237
696.440	1063.515
696.568	1064.423
696.696	1044.278
696.824	1043.763
696.952	1049.237
697.080	1057.155
697.208	1053.711
697.337	1039.660
697.465	1049.175
697.593	1039.608
697.721	1040.619
697.849	1041.113
697.977	1040.845
698.105	1044.856
698.233	1034.876
698.362	1031.660
698.490	1024.588
698.618	1037.165
698.746	1030.876
698.874	1019.134
699.002	1025.794
699.130	1028.381
699.258	1016.907
699.387	1013.144
699.515	1004.969
699.643	1021.722
699.771	1010.289
699.899	1013.103
700.027	1002.474
700.155	1006.474
700.283	1003.196
700.412	999.330
700.540	990.041
700.668	997.629
700.796	993.392
700.924	981.031
701.052	997.134
701.180	980.010
701.308	975.495
701.437	983.237
701.565	975.784
701.693	964.196
701.821	972.165
701.949	960.588
702.077	970.897
702.205	971.938
702.333	959.062
702.462	961.928
702.590	951.814
702.718	944.227
702.846	944.948
702.974	952.804
703.102	946.392
703.230	943.351
703.358	933.680
703.487	931.959
703.615	927.866
703.743	925.433
703.871	922.876
703.999	926.443
704.127	917.546
704.255	914.299
704.383	916.505
704.512	910.546
704.640	910.031
704.768	902.546
704.896	900.835
705.024	894.093
705.152	891.093
705.280	895.907
705.408	887.031
705.537	894.670
705.665	895.010
705.793	883.979
705.921	882.598
706.049	875.701
706.177	878.227
706.305	881.464
706.433	868.546
706.562	866.979
706.690	865.289
706.818	856.567
706.946	857.227
707.074	857.062
707.202	843.804
707.330	839.299
707.458	848.412
707.587	840.608
707.715	841.928
707.843	835.990
707.971	841.093
708.099	830.845
708.227	834.526
708.355	830.608
708.483	823.433
708.612	828.289
708.740	824.010
708.868	821.330
708.996	822.722
709.124	814.474
709.252	815.402
709.380	808.804
709.508	806.639
709.637	817.330
709.765	802.124
709.893	802.742
710.021	799.670
710.149	798.876
710.277	807.186
710.405	797.010
710.533	796.845
710.662	786.784
710.790	796.278
710.918	792.361
711.046	788.660
711.174	788.990
711.302	783.608
711.430	778.206
711.558	781.753
711.687	781.876
711.815	777.866
711.943	777.722
712.071	777.196
712.199	770.588
712.327	757.433
712.455	763.680
712.583	769.072
712.712	768.794
712.840	753.794
712.968	755.649
713.096	758.773
713.224	753.897
713.352	750.825
713.480	750.536
713.608	751.247
713.737	748.825
713.865	743.320
713.993	750.454
714.121	744.495
714.249	742.196
714.377	733.082
714.505	744.010
714.633	735.041
714.762	730.959
714.890	739.722
715.018	740.392
715.146	726.711
715.274	730.062
715.402	724.660
715.530	734.402
715.658	712.526
715.787	721.907
715.915	721.340
716.043	715.979
716.171	718.155
716.299	718.876
716.427	714.381
716.555	705.577
716.683	704.258
716.812	704.433
716.940	705.753
717.068	696.670
717.196	703.711
717.324	695.041
717.452	694.021
717.580	689.340
717.708	695.588
717.837	689.124
717.965	685.041
718.093	679.485
718.221	681.216
718.349	682.216
718.477	683.959
718.605	674.206
718.733	670.247
718.862	667.526
718.990	669.866
719.118	665.052
719.246	667.423
719.374	665.505
719.502	665.113
719.630	655.856
719.758	648.784
719.887	655.196
720.015	655.340
720.143	645.825
720.271	649.691
720.399	642.423
720.527	647.072
720.655	641.701
720.783	639.443
720.912	636.340
721.040	634.052
721.168	638.660
721.296	632.515
721.424	631.969
721.552	623.093
721.680	621.361
721.808	619.309
721.937	614.216
722.065	614.361
722.193	604.619
722.321	616.010
722.449	602.000
722.577	601.247
722.705	591.165
722.833	595.124
722.962	592.876
723.090	590.763
723.218	592.299
723.346	585.052
723.474	576.227
723.602	586.918
723.730	580.144
723.858	580.835
723.987	577.392
724.115	577.660
724.243	577.196
724.371	568.206
724.499	569.031
724.627	560.732
724.755	566.268
724.883	564.588
725.012	557.464
725.140	551.031
725.268	550.093
725.396	542.649
725.524	541.794
725.652	542.948
725.780	540.474
725.908	540.804
726.037	531.371
726.165	535.216
726.293	529.134
726.421	528.948
726.549	524.567
726.677	523.711
726.805	524.784
726.933	519.330
727.062	515.309
727.190	512.340
727.318	520.546
727.446	513.670
727.574	517.876
727.702	507.577
727.830	509.588
727.958	505.979
728.087	507.495
728.215	498.361
728.343	502.856
728.471	500.340
728.599	490.402
728.727	494.577
728.855	493.608
728.983	486.660
729.112	479.845
729.240	480.495
729.368	479.948
729.496	483.351
729.624	478.567
729.752	478.309
729.880	478.619
730.008	481.402
730.137	469.485
730.265	468.660
730.393	463.928
730.521	460.619
730.649	461.814
730.777	465.649
730.905	464.309
731.033	459.515
731.162	457.753
731.290	455.835
731.418	449.392
731.546	449.144
731.674	447.289
731.802	456.000
731.930	446.412
732.058	444.701
732.187	441.206
732.315	447.144
732.443	440.443
732.571	436.866
732.699	439.639
732.827	439.052
732.955	431.629
733.083	433.505
733.212	431.959
733.340	438.062
733.468	429.443
733.596	429.918
733.724	429.402
733.852	425.381
733.980	422.763
734.108	419.546
734.237	419.546
734.365	424.268
734.493	421.825
734.621	414.959
734.749	414.577
734.877	414.948
735.005	419.062
735.133	412.784
735.262	412.464
735.390	407.216
735.518	406.742
735.646	399.361
735.774	404.247
735.902	405.412
736.030	399.680
736.158	400.144
736.287	396.546
736.415	399.598
736.543	399.258
736.671	393.845
736.799	389.474
736.927	390.454
737.055	391.557
737.183	386.536
737.312	388.629
737.440	380.701
737.568	388.474
737.696	383.144
737.824	381.557
737.952	383.629
738.080	378.381
738.208	378.381
738.337	372.052
738.465	373.567
738.593	372.866
738.721	368.052
738.849	374.887
738.977	367.062
739.105	367.134
739.233	365.794
739.362	358.928
739.490	358.763
739.618	362.938
739.746	362.897
739.874	359.330
740.002	359.887
740.130	355.979
740.258	356.155
740.387	359.175
740.515	354.186
740.643	353.474
740.771	353.412
740.899	346.670
741.027	343.299
741.155	350.464
741.283	343.381
741.412	340.588
741.540	343.835
741.668	341.216
741.796	336.247
741.924	337.773
742.052	333.443
742.180	338.546
742.308	337.557
742.437	337.392
742.565	333.588
742.693	333.722
742.821	337.361
742.949	329.052
743.077	326.753
743.205	328.918
743.333	323.227
743.462	321.763
743.590	321.082
743.718	323.330
743.846	317.804
743.974	320.206
744.102	315.897
744.230	317.536
744.358	316.959
744.487	312.814
744.615	308.443
744.743	307.113
744.871	306.701
744.999	302.113
745.127	302.680
745.255	298.804
745.383	298.103
745.512	305.670
745.640	296.773
745.768	299.742
745.896	296.928
746.024	295.340
746.152	293.021
746.280	298.474
746.408	293.887
746.537	289.165
746.665	294.660
746.793	293.381
746.921	289.103
747.049	282.577
747.177	279.526
747.305	282.732
747.433	276.887
747.562	280.732
747.690	275.948
747.818	277.237
747.946	276.938
748.074	275.866
748.202	275.732
748.330	270.423
748.458	270.732
748.587	271.010
748.715	264.742
748.843	266.753
748.971	263.639
749.099	262.990
749.227	258.402
749.355	264.062
749.483	265.031
749.612	258.557
749.740	260.196
749.868	255.247
749.996	259.423
750.124	254.536
750.252	260.990
750.380	253.557
750.508	252.938
750.637	251.928
750.765	248.155
750.893	251.103
751.021	248.639
751.149	248.701
751.277	247.979
751.405	240.711
751.533	242.629
751.662	245.825
751.790	245.990
751.918	243.598
752.046	239.227
752.174	237.784
752.302	240.577
752.430	237.381
752.558	238.990
752.687	235.278
752.815	231.433
752.943	236.979
753.071	230.670
753.199	225.464
753.327	238.072
753.455	227.320
753.583	225.320
753.712	224.649
753.840	226.299
753.968	227.691
754.096	222.474
754.224	223.701
754.352	220.990
754.480	218.113
754.608	222.959
754.737	218.402
754.865	218.742
754.993	213.701
755.121	213.371
755.249	217.082
755.377	207.041
755.505	215.845
755.633	216.701
755.762	210.454
755.890	213.175
756.018	207.979
756.146	206.113
756.274	204.536
756.402	205.175
756.530	203.124
756.658	209.536
756.787	201.814
756.915	200.247
757.043	199.794
757.171	203.866
757.299	202.649
757.427	197.082
757.555	197.320
757.683	196.526
757.812	197.268
757.940	194.072
758.068	196.186
758.196	195.546
758.324	193.134
758.452	191.103
758.580	189.856
758.708	193.567
758.837	190.732
758.965	184.938
759.093	185.959
759.221	187.825
759.349	189.722
759.477	187.732
759.605	182.979
759.733	187.464
759.862	184.866
759.990	183.392
760.118	182.144
760.246	181.186
760.374	182.485
760.502	178.371
760.630	178.515
760.758	177.443
760.887	176.381
761.015	174.134
761.143	178.330
761.271	176.866
761.399	174.887
761.527	175.804
761.655	174.918
761.783	174.237
761.912	173.918
762.040	170.454
762.168	170.072
762.296	168.804
762.424	169.031
762.552	168.155
762.680	166.093
762.808	168.938
762.937	166.371
763.065	165.804
763.193	167.175
763.321	164.474
763.449	163.165
763.577	160.433
763.705	165.845
763.833	165.093
763.962	160.742
764.090	159.928
764.218	162.814
764.346	161.031
764.474	160.340
764.602	158.474
764.730	158.660
764.858	160.856
764.987	157.742
765.115	158.753
765.243	159.371
765.371	157.031
765.499	154.649
765.627	154.918
765.755	153.464
765.883	150.753
766.012	152.763
766.140	152.196
766.268	152.887
766.396	154.031
766.524	152.680
766.652	153.608
766.780	150.454
766.908	150.392
767.037	151.495
767.165	150.423
767.293	153.124
767.421	151.412
767.549	148.144
767.677	151.629
767.805	149.742
767.933	146.691
768.062	149.990
768.190	147.505
768.318	148.134
768.446	147.361
768.574	148.175
768.702	147.732
768.830	145.340
768.958	145.258
769.087	147.835
769.215	148.814
769.343	145.948
769.471	145.649
769.599	147.021
769.727	145.773
769.855	145.691
769.983	139.309
770.112	144.897
770.240	144.381
770.368	141.691
770.496	145.918
770.624	142.660
770.752	146.134
770.880	142.278
771.008	143.021
771.137	142.918
771.265	139.959
771.393	141.330
771.521	142.031
771.649	140.825
771.777	138.454
771.905	141.722
772.033	143.670
772.162	141.052
772.290	138.454
772.418	140.237
772.546	139.918
772.674	139.711
772.802	140.773
772.930	137.216
773.058	138.938
773.187	136.701
773.315	138.608
773.443	136.165
773.571	136.629
773.699	135.948
773.827	138.155
773.955	138.753
774.083	138.887
774.212	136.062
774.340	134.206
774.468	135.546
774.596	135.278
774.724	135.196
774.852	133.907
774.980	134.732
775.108	133.711
775.237	132.423
775.365	132.103
775.493	135.186
775.621	132.134
775.749	132.423
775.877	135.093
776.005	133.938
776.133	133.608
776.262	132.155
776.390	131.670
776.518	132.753
776.646	132.536
776.774	131.021
776.902	130.134
777.030	131.175
777.158	130.186
777.287	131.753
777.415	132.216
777.543	130.959
777.671	133.691
777.799	130.845
777.927	132.330
778.055	128.412
778.183	130.485
778.312	129.907
778.440	127.979
778.568	129.918
778.696	127.928
778.824	129.021
778.952	127.907
779.080	128.804
779.208	128.680
779.337	124.897
779.465	126.711
779.593	127.278
779.721	127.165
779.849	127.134
779.977	127.825
780.105	128.660
780.233	125.464
780.362	126.536
780.490	125.186
780.618	125.113
780.746	125.649
780.874	121.639
781.002	123.639
781.130	125.320
781.258	123.577
781.387	124.732
781.515	123.619
781.643	122.691
781.771	124.753
781.899	123.557
782.027	122.680
782.155	123.155
782.283	120.175
782.412	121.289
782.540	123.814
782.668	124.010
782.796	120.938
782.924	122.381
783.052	121.381
783.180	120.175
783.308	122.227
783.437	123.289
783.565	121.495
783.693	120.113
783.821	121.897
783.949	121.629
784.077	120.309
784.205	120.804
784.333	121.722
784.462	120.113
784.590	123.443
784.718	118.299
784.846	117.361
784.974	118.134
785.102	119.402
785.230	119.804
785.358	117.876
785.487	119.268
785.615	117.835
785.743	117.711
785.871	116.938
785.999	119.928
786.127	116.794
786.255	118.464
786.383	117.309
786.512	117.330
786.640	116.464
786.768	120.371
786.896	116.536
787.024	117.021
787.152	115.113
787.280	115.433
787.408	118.330
787.537	116.072
787.665	117.278
787.793	115.763
787.921	116.402
788.049	116.856
788.177	115.433
788.305	114.093
788.433	115.979
788.562	113.959
788.690	114.515
788.818	113.278
788.946	116.856
789.074	112.959
789.202	113.371
789.330	113.371
789.458	115.454
789.587	113.948
789.715	112.918
789.843	112.619
789.971	112.237
790.099	113.794
790.227	113.794
790.355	113.505
790.483	113.155
790.612	113.753
790.740	114.959
790.868	115.082
790.996	113.526
791.124	112.402
791.252	114.124
791.380	111.351
791.508	110.289
791.637	113.392
791.765	111.505
791.893	110.845
792.021	110.670
792.149	110.866
792.277	111.515
792.405	112.876
792.533	112.577
792.662	110.124
792.790	111.485
792.918	111.938
793.046	109.907
793.174	110.289
793.302	111.505
793.430	111.464
793.558	110.392
793.687	109.722
793.815	109.835
793.943	110.247
794.071	108.691
794.199	109.990
794.327	109.010
794.455	109.289
794.583	109.000
794.712	109.753
794.840	107.938
794.968	109.979
795.096	109.309
795.224	109.124
795.352	109.309
795.480	108.340
795.608	110.959
795.737	109.546
795.865	109.062
795.993	108.433
796.121	108.742
796.249	107.577
796.377	106.546
796.505	109.052
796.633	111.041
796.762	107.309
796.890	108.670
797.018	109.835
797.146	108.289
797.274	107.526
797.402	107.278
797.530	108.918
797.658	106.876
797.787	108.371
797.915	107.598
798.043	106.959
798.171	107.330
798.299	105.907
798.427	107.701
798.555	107.052
798.683	106.711
798.812	107.619
798.940	106.165
799.068	107.309
799.196	107.814
799.324	106.887
799.452	104.918
799.580	105.443
799.708	106.433
799.837	107.670
799.965	106.351
800.093	105.639
800.221	106.876
800.349	105.619
800.477	106.175
800.605	106.835
800.733	106.670
800.862	108.289
800.990	107.330
801.118	106.814
801.246	105.402
801.374	105.670
801.502	106.216
801.630	105.062
801.758	106.536
801.887	105.082
802.015	104.866
802.143	105.144
802.271	104.258
802.399	104.351
802.527	104.928
802.655	105.577
802.783	105.454
802.912	105.433
803.040	104.835
803.168	103.474
803.296	105.536
803.424	104.505
803.552	103.845
803.680	103.577
803.808	104.113
803.937	104.144
804.065	104.093
804.193	104.588
804.321	104.660
804.449	103.299
804.577	102.814
804.705	104.753
804.833	103.938
804.962	103.381
805.090	103.557
805.218	104.062
805.346	105.041
805.474	104.711
805.602	104.763
805.730	102.928
805.858	104.299
805.987	102.856
806.115	104.742
806.243	105.062
806.371	102.918
806.499	103.577
806.627	103.804
806.755	103.608
806.883	101.969
807.012	102.464
807.140	102.866
807.268	103.062
807.396	103.144
807.524	102.485
807.652	102.320
807.780	104.443
807.908	102.093
808.037	103.093
808.165	103.711
808.293	102.320
808.421	102.845
808.549	103.216
808.677	102.959
808.805	103.144
808.933	103.196
809.062	102.742
809.190	104.062
809.318	103.124
809.446	101.907
809.574	102.289
809.702	103.062
809.830	102.742
809.958	102.732
810.087	102.711
810.215	103.866
810.343	102.928
810.471	102.990
810.599	103.732
810.727	104.629
810.855	101.371
810.983	101.701
811.112	103.629
811.240	102.103
811.368	102.515
811.496	102.680
811.624	102.938
811.752	101.474
811.880	102.062
812.008	102.361
812.137	101.959
812.265	101.155
812.393	101.990
812.521	101.320
812.649	101.701
812.777	100.660
812.905	100.691
813.033	100.773
813.162	100.825
813.290	102.165
813.418	102.495
813.546	103.186
813.674	101.392
813.802	100.990
813.930	100.381
814.058	100.454
814.187	101.351
814.315	101.021
814.443	100.309
814.571	99.866
814.699	100.825
814.827	102.237
814.955	101.278
815.083	101.206
815.212	101.423
815.340	101.289
815.468	100.299
815.596	101.918
815.724	101.907
815.852	101.536
815.980	100.701
816.108	102.062
816.237	101.340
816.365	101.010
816.493	100.289
816.621	100.814
816.749	100.680
816.877	101.124
817.005	100.979
817.133	101.588
817.262	102.206
817.390	101.835
817.518	100.505
817.646	99.876
817.774	100.907
817.902	100.412
818.030	99.433
818.158	101.186
818.287	101.876
818.415	101.825
818.543	99.959
818.671	101.093
818.799	100.423
818.927	99.485
819.055	101.247
819.183	101.113
819.312	101.546
819.440	100.598
819.568	99.598
819.696	100.021
819.824	99.969
819.952	100.588
820.080	99.979
820.208	99.918
820.337	101.474
820.465	99.866
820.593	98.948
820.721	100.505
820.849	99.485
820.977	99.722
821.105	101.268
821.233	99.897
821.362	100.206
821.490	99.124
821.618	100.526
821.746	99.165
821.874	98.093
822.002	100.649
822.130	99.856
822.258	98.763
822.387	99.299
822.515	100.835
822.643	100.021
822.771	98.165
822.899	99.093
823.027	99.402
823.155	99.237
823.283	99.268
823.412	101.165
823.540	100.474
823.668	98.680
823.796	98.330
823.924	101.010
824.052	98.959
824.180	98.722
824.308	99.536
824.437	98.588
824.565	99.258
824.693	100.196
824.821	99.567
824.949	99.206
825.077	99.866
825.205	98.938
825.333	99.175
825.462	98.979
825.590	98.825
825.718	97.722
825.846	98.144
825.974	99.155
826.102	98.856
826.230	98.247
826.358	99.938
826.487	99.794
826.615	97.464
826.743	99.227
826.871	99.588
826.999	100.753
827.127	99.866
827.255	99.124
827.383	97.969
827.512	97.948
827.640	99.928
827.768	100.320
827.896	99.639
828.024	98.237
828.152	97.918
828.280	100.134
828.408	100.515
828.537	98.773
828.665	99.351
828.793	99.340
828.921	99.526
829.049	98.753
829.177	98.227
829.305	99.649
829.433	99.021
829.562	97.464
829.690	99.031
829.818	98.876
829.946	98.340
830.074	97.918
830.202	98.814
830.330	98.309
830.458	100.515
830.587	99.577
830.715	98.742
830.843	98.474
830.971	97.845
831.099	97.196
831.227	98.907
831.355	99.186
831.483	100.062
831.612	98.948
831.740	98.577
831.868	98.969
831.996	98.227
832.124	99.557
832.252	98.206
832.380	98.485
832.508	98.433
832.637	98.289
832.765	98.979
832.893	99.732
833.021	99.144
833.149	98.526
833.277	99.959
833.405	99.979
833.533	97.268
833.662	98.732
833.790	97.856
833.918	99.351
834.046	99.031
834.174	99.268
834.302	98.680
834.430	97.742
834.558	99.495
834.687	99.289
834.815	99.227
834.943	98.103
835.071	96.845
835.199	97.392
835.327	98.165
835.455	96.897
835.583	99.165
835.712	98.907
835.840	99.948
835.968	98.402
836.096	97.526
836.224	99.330
836.352	100.175
836.480	100.196
836.608	99.052
836.737	99.784
836.865	99.000
836.993	98.361
837.121	98.454
837.249	98.278
837.377	97.598
837.505	97.134
837.633	98.619
837.762	96.753
837.890	97.247
838.018	97.072
838.146	97.196
838.274	97.753
838.402	99.103
838.530	98.216
838.658	97.876
838.787	98.289
838.915	98.381
839.043	98.227
839.171	98.763
839.299	97.165
839.427	98.216
839.555	99.515
839.683	100.320
839.812	98.299
839.940	98.979
840.068	98.660
840.196	100.371
840.324	99.175
840.452	98.887
840.580	98.567
840.708	98.969
840.837	97.557
840.965	97.330
841.093	99.000
841.221	99.948
841.349	99.979
841.477	99.103
841.605	98.392
841.733	96.474
841.862	99.320
841.990	98.206
842.118	98.237
842.246	98.505
842.374	97.567
842.502	98.103
842.630	98.320
842.758	97.639
842.887	98.320
843.015	99.144
843.143	97.897
843.271	98.567
843.399	99.093
843.527	97.784
843.655	98.660
843.783	98.907
843.912	99.237
844.040	98.938
844.168	99.897
844.296	99.258
844.424	99.165
844.552	99.206
844.680	97.464
844.808	99.237
844.937	98.412
845.065	98.433
845.193	99.897
845.321	99.753
845.449	98.474
845.577	98.825
845.705	99.320
845.833	100.649
845.962	97.979
846.090	97.619
846.218	97.732
846.346	99.227
846.474	98.124
846.602	97.649
846.730	97.598
846.858	97.567
846.987	96.732
847.115	97.969
847.243	98.990
847.371	99.485
847.499	97.485
847.627	98.031
847.755	98.021
847.883	98.299
848.012	98.268
848.140	99.381
848.268	98.010
848.396	97.969
848.524	99.021
848.652	99.567
848.780	97.773
848.908	99.814
849.037	98.990
849.165	99.691
849.293	96.959
849.421	98.649
849.549	98.381
849.677	97.351
849.805	98.835
849.933	99.000
850.062	98.979
850.190	98.082
850.318	98.814
850.446	98.907
850.574	97.742
850.702	98.381
850.830	98.000
850.958	98.165
851.087	98.845
851.215	99.175
851.343	97.278
851.471	96.485
851.599	98.990
851.727	98.041
851.855	97.340
851.983	97.309
852.112	99.010
852.240	98.371
852.368	99.031
852.496	97.608
852.624	97.938
852.752	97.794
852.880	98.000
853.008	98.474
853.137	98.495
853.265	98.268
853.393	98.701
853.521	97.814
853.649	98.742
853.777	98.938
853.905	98.918
854.033	97.629
854.162	99.567
854.290	99.227
854.418	98.474
854.546	96.392
854.674	98.268
854.802	96.753
854.930	97.794
855.058	98.278
855.187	98.165
855.315	97.660
855.443	98.794
855.571	99.155
855.699	99.763
855.827	98.340
855.955	97.340
856.083	97.680
856.212	98.814
856.340	99.340
856.468	98.856
856.596	97.979
856.724	97.505
856.852	98.608
856.980	97.897
857.108	98.876
857.237	98.113
857.365	99.505
857.493	98.619
857.621	98.268
857.749	97.412
857.877	97.443
858.005	98.825
858.133	95.948
858.262	96.948
858.390	99.052
858.518	97.021
858.646	98.113
858.774	100.010
858.902	98.639
859.030	97.722
859.158	97.536
859.287	97.825
859.415	98.691
859.543	98.804
859.671	98.165
859.799	98.381
859.927	97.804
860.055	98.753
860.183	97.959
860.312	98.423
860.440	97.474
860.568	99.845
860.696	97.918
860.824	98.299
860.952	97.536
861.080	98.722
861.208	99.052
861.337	97.113
861.465	97.660
861.593	98.825
861.721	99.258
861.849	98.423
861.977	98.237
862.105	98.021
862.233	98.134
862.362	98.876
862.490	99.021
862.618	97.536
862.746	98.619
862.874	100.144
863.002	98.351
863.130	99.093
863.258	98.814
863.387	98.732
863.515	98.454
863.643	97.309
863.771	98.072
863.899	98.371
864.027	100.289
864.155	99.134
864.283	98.680
864.412	100.062
864.540	99.381
864.668	98.629
864.796	99.093
864.924	98.825
865.052	97.938
865.180	98.072
865.308	98.041
865.437	97.990
865.565	97.381
865.693	97.278
865.821	99.412
865.949	99.227
866.077	99.897
866.205	97.722
866.333	97.330
866.462	97.619
866.590	99.691
866.718	98.969
866.846	99.278
866.974	98.454
867.102	97.082
867.230	97.619
867.358	98.814
867.487	97.732
867.615	98.381
867.743	99.351
867.871	98.959
867.999	98.361
868.127	98.144
868.255	98.536
868.383	99.113
868.512	100.031
868.640	98.206
868.768	99.825
868.896	98.010
869.024	98.670
869.152	97.464
869.280	98.608
869.408	99.021
869.537	99.814
869.665	99.423
869.793	98.371
869.921	99.505
870.049	99.371
870.177	99.268
870.305	99.237
870.433	98.979
870.562	98.959
870.690	98.701
870.818	99.845
870.946	100.000
871.074	99.000
871.202	99.412
871.330	99.495
871.458	100.845
871.587	98.701
871.715	98.134
871.843	99.464
871.971	99.619
872.099	97.876
872.227	98.536
872.355	96.969
872.483	99.330
872.612	99.866
872.740	97.979
872.868	98.897
872.996	97.392
873.124	98.443
873.252	100.670
873.380	98.268
873.508	99.464
873.637	98.464
873.765	98.113
873.893	98.165
874.021	100.196
874.149	99.093
874.277	99.856
874.405	99.680
874.533	99.598
874.662	98.835
874.790	98.144
874.918	98.969
875.046	98.526
875.174	98.588
875.302	99.062
875.430	98.155
875.558	98.340
875.687	98.804
875.815	100.155
875.943	98.742
876.071	99.165
876.199	100.412
876.327	98.887
876.455	100.031
876.583	100.062
876.712	99.763
876.840	97.062
876.968	99.485
877.096	99.309
877.224	100.052
877.352	98.361
877.480	97.938
877.608	98.763
877.737	98.330
877.865	98.124
877.993	98.237
878.121	99.113
878.249	99.351
878.377	97.845
878.505	98.608
878.633	100.959
878.762	99.629
878.890	99.474
879.018	99.454
879.146	99.577
879.274	99.340
879.402	100.773
879.530	98.979
879.658	98.268
879.787	98.216
879.915	99.835
880.043	99.598
880.171	99.433
880.299	98.247
880.427	98.804
880.555	98.392
880.683	98.794
880.812	99.979
880.940	98.763
881.068	98.866
881.196	99.330
881.324	98.876
881.452	99.021
881.580	98.495
881.708	98.072
881.837	100.052
881.965	98.309
882.093	98.289
882.221	98.794
882.349	98.093
882.477	99.649
882.605	100.340
882.733	98.918
882.862	100.113
882.990	98.918
883.118	100.124
883.246	99.402
883.374	100.103
883.502	98.835
883.630	101.072
883.758	99.701
883.887	98.938
884.015	100.021
884.143	99.371
884.271	100.206
884.399	99.155
884.527	99.340
884.655	99.794
884.783	100.598
884.912	99.928
885.040	99.897
885.168	98.330
885.296	98.722
885.424	98.577
885.552	99.670
885.680	99.216
885.808	99.247
885.937	99.423
886.065	99.412
886.193	98.588
886.321	99.938
886.449	99.907
886.577	99.866
886.705	99.464
886.833	98.753
886.962	100.237
887.090	99.041
887.218	99.392
887.346	99.526
887.474	99.763
887.602	100.186
887.730	97.330
887.858	98.567
887.987	99.010
888.115	97.402
888.243	100.515
888.371	99.443
888.499	100.381
888.627	99.536
888.755	98.649
888.883	99.825
889.012	99.196
889.140	99.082
889.268	99.577
889.396	100.216
889.524	100.773
889.652	100.557
889.780	98.732
889.908	99.134
890.037	98.732
890.165	98.454
890.293	99.485
890.421	100.206
890.549	101.196
890.677	98.330
890.805	99.546
890.933	99.897
891.062	100.505
891.190	99.784
891.318	100.165
891.446	101.093
891.574	99.278
891.702	97.412
891.830	98.753
891.958	99.619
892.087	100.722
892.215	100.608
892.343	100.763
892.471	99.773
892.599	100.124
892.727	100.124
892.855	99.124
892.983	99.361
893.112	99.784
893.240	100.010
893.368	100.649
893.496	101.567
893.624	99.814
893.752	100.103
893.880	98.732
894.008	100.093
894.137	98.619
894.265	99.557
894.393	100.320
894.521	98.041
894.649	99.536
894.777	98.536
894.905	100.206
895.033	101.969
895.162	101.206
895.290	100.052
895.418	101.670
895.546	101.072
895.674	99.165
895.802	99.320
895.930	99.670
896.058	99.515
896.187	99.289
896.315	100.773
896.443	99.361
896.571	99.093
896.699	99.454
896.827	99.876
896.955	98.835
897.083	99.320
897.212	100.330
897.340	98.485
897.468	99.186
897.596	99.412
897.724	98.969
897.852	100.876
897.980	99.134
898.108	99.041
898.237	99.309
898.365	100.216
898.493	100.835
898.621	100.381
898.749	99.639
898.877	99.268
899.005	99.052
899.133	100.021
899.262	99.866
899.390	98.979
899.518	98.515
899.646	100.278
899.774	100.608
899.902	100.608
900.030	100.052
900.158	100.113
900.287	100.093
900.415	99.433
900.543	99.186
900.671	101.206
900.799	99.309
900.927	99.794
901.055	99.227
901.183	99.443
901.312	99.804
901.440	99.918
901.568	101.505
901.696	101.371
901.824	99.485
901.952	100.897
902.080	99.639
902.208	98.753
902.337	100.567
902.465	99.268
902.593	100.144
902.721	100.825
902.849	101.536
902.977	99.814
903.105	100.464
903.233	99.825
903.362	99.784
903.490	98.866
903.618	100.000
903.746	98.639
903.874	100.619
904.002	100.505
904.130	100.330
904.258	99.577
904.387	99.289
904.515	98.804
904.643	99.619
904.771	100.928
904.899	100.804
905.027	100.474
905.155	99.021
905.283	100.010
905.412	99.567
905.540	99.773
905.668	101.381
905.796	98.928
905.924	100.454
906.052	100.948
906.180	100.175
906.308	97.804
906.437	98.670
906.565	101.722
906.693	100.340
906.821	97.742
906.949	99.876
907.077	100.010
907.205	99.979
907.333	99.289
907.462	100.845
907.590	100.144
907.718	99.258
907.846	100.598
907.974	102.247
908.102	101.021
908.230	98.990
908.358	99.443
908.487	97.938
908.615	100.227
908.743	100.856
908.871	100.711
908.999	100.443
909.127	99.309
909.255	99.515
909.383	98.629
909.512	100.021
909.640	100.082
909.768	100.495
909.896	100.299
910.024	100.969
910.152	100.938
910.280	99.866
910.408	101.361
910.537	101.639
910.665	100.897
910.793	99.866
910.921	101.175
911.049	100.237
911.177	99.175
911.305	99.928
911.433	100.866
911.562	100.402
911.690	100.598
911.818	99.392
911.946	100.876
912.074	101.299
912.202	100.247
912.330	99.928
912.458	101.515
912.587	100.392
912.715	100.588
912.843	100.763
912.971	102.134
913.099	100.175
913.227	100.464
913.355	101.887
913.483	100.330
913.612	100.732
913.740	100.887
913.868	100.299
