sample4v_at_750.00nm_cut_at_1060.50Y_01.dat
19.06.2023
11:07:22
cut middle at Y: 1060.50
top cursor: 1109 down cursor: 1012 mean of: 97 lines , 2560 datapoints
wavelength(nm)	intensity[arb. units]
585.996	867.041
586.124	838.464
586.252	832.753
586.380	819.175
586.508	826.309
586.637	832.897
586.765	829.619
586.893	832.010
587.021	831.577
587.149	830.969
587.277	834.835
587.405	838.526
587.533	837.866
587.662	831.959
587.790	839.196
587.918	843.897
588.046	836.237
588.174	836.392
588.302	844.784
588.430	833.309
588.558	842.660
588.687	840.711
588.815	845.567
588.943	851.959
589.071	844.299
589.199	842.041
589.327	841.134
589.455	838.165
589.583	847.258
589.712	843.155
589.840	843.814
589.968	844.753
590.096	848.443
590.224	847.309
590.352	847.474
590.480	852.000
590.608	845.814
590.737	843.402
590.865	854.454
590.993	848.289
591.121	851.918
591.249	849.464
591.377	841.670
591.505	849.165
591.633	838.103
591.762	849.928
591.890	856.165
592.018	851.299
592.146	849.340
592.274	852.000
592.402	854.608
592.530	851.113
592.658	855.577
592.787	858.021
592.915	849.557
593.043	861.165
593.171	857.247
593.299	864.062
593.427	855.289
593.555	869.722
593.683	862.845
593.812	869.186
593.940	872.557
594.068	879.804
594.196	871.969
594.324	873.443
594.452	880.804
594.580	885.515
594.708	892.299
594.837	882.144
594.965	895.454
595.093	892.814
595.221	895.392
595.349	894.412
595.477	898.588
595.605	901.794
595.733	912.340
595.862	916.423
595.990	906.144
596.118	916.289
596.246	916.660
596.374	914.691
596.502	918.567
596.630	931.887
596.758	919.763
596.887	927.093
597.015	925.485
597.143	914.711
597.271	924.258
597.399	933.320
597.527	936.258
597.655	928.588
597.783	925.485
597.912	928.608
598.040	934.660
598.168	922.392
598.296	924.567
598.424	926.711
598.552	922.309
598.680	916.474
598.808	934.371
598.937	926.588
599.065	931.392
599.193	933.031
599.321	918.680
599.449	932.124
599.577	932.010
599.705	929.196
599.833	927.227
599.962	925.649
600.090	925.866
600.218	931.629
600.346	938.124
600.474	928.784
600.602	945.124
600.730	939.515
600.858	932.021
600.987	932.041
601.115	933.041
601.243	936.588
601.371	937.392
601.499	948.381
601.627	944.021
601.755	950.773
601.883	952.866
602.012	961.701
602.140	955.907
602.268	955.938
602.396	961.371
602.524	967.907
602.652	972.814
602.780	974.515
602.908	978.082
603.037	978.309
603.165	980.474
603.293	983.361
603.421	983.155
603.549	987.990
603.677	993.433
603.805	996.031
603.933	1003.423
604.062	998.485
604.190	1015.227
604.318	1011.804
604.446	1019.515
604.574	1010.423
604.702	1029.423
604.830	1021.990
604.958	1033.443
605.087	1041.371
605.215	1044.691
605.343	1045.526
605.471	1052.835
605.599	1044.278
605.727	1051.474
605.855	1057.495
605.983	1057.351
606.112	1073.031
606.240	1068.021
606.368	1072.361
606.496	1070.124
606.624	1069.794
606.752	1071.361
606.880	1076.433
607.008	1074.392
607.137	1081.381
607.265	1088.722
607.393	1083.165
607.521	1087.526
607.649	1082.412
607.777	1089.495
607.905	1083.526
608.033	1094.557
608.162	1089.536
608.290	1085.155
608.418	1101.330
608.546	1090.268
608.674	1088.186
608.802	1092.763
608.930	1106.041
609.058	1099.918
609.187	1094.557
609.315	1091.742
609.443	1100.825
609.571	1102.515
609.699	1100.392
609.827	1099.330
609.955	1100.866
610.083	1098.258
610.212	1105.299
610.340	1104.866
610.468	1096.814
610.596	1109.577
610.724	1102.433
610.852	1108.144
610.980	1103.959
611.108	1111.062
611.237	1110.402
611.365	1104.021
611.493	1115.268
611.621	1116.856
611.749	1128.814
611.877	1128.237
612.005	1121.206
612.133	1136.753
612.262	1127.423
612.390	1144.588
612.518	1149.866
612.646	1138.103
612.774	1148.041
612.902	1143.216
613.030	1149.773
613.158	1145.361
613.287	1162.093
613.415	1161.763
613.543	1170.258
613.671	1171.897
613.799	1172.175
613.927	1177.103
614.055	1186.680
614.183	1184.041
614.312	1188.701
614.440	1202.309
614.568	1193.567
614.696	1202.144
614.824	1201.588
614.952	1211.299
615.080	1211.691
615.208	1221.938
615.337	1221.072
615.465	1219.309
615.593	1234.680
615.721	1223.371
615.849	1249.804
615.977	1241.567
616.105	1229.753
616.233	1243.082
616.362	1247.557
616.490	1242.093
616.618	1265.010
616.746	1250.289
616.874	1260.722
617.002	1264.031
617.130	1276.371
617.258	1267.856
617.387	1264.577
617.515	1274.165
617.643	1271.732
617.771	1287.557
617.899	1289.103
618.027	1281.278
618.155	1289.814
618.283	1290.794
618.412	1289.722
618.540	1290.495
618.668	1289.237
618.796	1297.423
618.924	1305.773
619.052	1300.897
619.180	1307.392
619.308	1294.299
619.437	1301.887
619.565	1312.546
619.693	1309.072
619.821	1314.680
619.949	1310.907
620.077	1321.134
620.205	1322.454
620.333	1313.701
620.462	1332.237
620.590	1323.557
620.718	1331.165
620.846	1324.113
620.974	1333.227
621.102	1326.381
621.230	1340.546
621.358	1336.351
621.487	1332.804
621.615	1338.948
621.743	1340.546
621.871	1337.979
621.999	1336.268
622.127	1347.103
622.255	1347.474
622.383	1342.536
622.512	1351.443
622.640	1347.722
622.768	1351.979
622.896	1346.186
623.024	1332.320
623.152	1351.887
623.280	1350.227
623.408	1360.268
623.537	1357.402
623.665	1369.619
623.793	1372.247
623.921	1363.938
624.049	1348.247
624.177	1359.773
624.305	1358.918
624.433	1370.247
624.562	1375.062
624.690	1366.124
624.818	1376.062
624.946	1372.196
625.074	1366.948
625.202	1370.938
625.330	1372.649
625.458	1392.897
625.587	1375.340
625.715	1377.577
625.843	1374.423
625.971	1387.000
626.099	1386.443
626.227	1401.340
626.355	1385.392
626.483	1399.464
626.612	1391.876
626.740	1390.588
626.868	1403.320
626.996	1399.619
627.124	1396.608
627.252	1403.773
627.380	1409.299
627.508	1406.052
627.637	1411.969
627.765	1414.567
627.893	1422.175
628.021	1409.887
628.149	1424.784
628.277	1430.856
628.405	1439.155
628.533	1439.639
628.662	1425.825
628.790	1441.907
628.918	1435.361
629.046	1437.062
629.174	1449.021
629.302	1450.268
629.430	1457.392
629.558	1449.732
629.687	1463.722
629.815	1467.351
629.943	1468.134
630.071	1468.454
630.199	1482.155
630.327	1474.711
630.455	1479.557
630.583	1484.753
630.712	1502.299
630.840	1486.505
630.968	1506.278
631.096	1501.969
631.224	1498.866
631.352	1497.763
631.480	1493.825
631.608	1508.918
631.737	1508.938
631.865	1523.052
631.993	1510.887
632.121	1513.887
632.249	1531.299
632.377	1535.474
632.505	1530.526
632.633	1515.330
632.762	1533.557
632.890	1537.619
633.018	1528.412
633.146	1534.526
633.274	1547.990
633.402	1528.495
633.530	1539.227
633.658	1537.351
633.787	1539.495
633.915	1538.299
634.043	1551.557
634.171	1542.845
634.299	1544.258
634.427	1536.918
634.555	1553.021
634.683	1547.412
634.812	1540.918
634.940	1536.381
635.068	1539.546
635.196	1534.835
635.324	1551.103
635.452	1553.649
635.580	1548.649
635.708	1545.639
635.837	1542.928
635.965	1540.144
636.093	1532.124
636.221	1535.268
636.349	1540.639
636.477	1539.825
636.605	1534.268
636.733	1537.763
636.862	1520.299
636.990	1533.206
637.118	1526.392
637.246	1529.299
637.374	1529.412
637.502	1529.845
637.630	1524.175
637.758	1537.990
637.887	1542.701
638.015	1515.567
638.143	1534.835
638.271	1521.918
638.399	1540.928
638.527	1523.680
638.655	1524.247
638.783	1532.918
638.912	1531.454
639.040	1525.814
639.168	1524.856
639.296	1531.619
639.424	1536.814
639.552	1530.371
639.680	1522.969
639.808	1531.649
639.937	1529.485
640.065	1526.825
640.193	1540.495
640.321	1527.742
640.449	1530.113
640.577	1531.711
640.705	1520.969
640.833	1538.876
640.962	1538.546
641.090	1534.041
641.218	1533.402
641.346	1532.742
641.474	1536.082
641.602	1532.216
641.730	1541.835
641.858	1537.845
641.987	1551.629
642.115	1549.082
642.243	1550.969
642.371	1554.247
642.499	1545.155
642.627	1554.278
642.755	1552.959
642.883	1560.794
643.012	1558.897
643.140	1565.175
643.268	1554.711
643.396	1549.062
643.524	1563.897
643.652	1567.021
643.780	1555.072
643.908	1552.423
644.037	1562.062
644.165	1567.216
644.293	1565.299
644.421	1569.227
644.549	1581.505
644.677	1581.608
644.805	1575.082
644.933	1568.041
645.062	1573.701
645.190	1556.577
645.318	1570.918
645.446	1591.412
645.574	1589.711
645.702	1567.546
645.830	1579.289
645.958	1588.320
646.087	1569.825
646.215	1578.155
646.343	1584.619
646.471	1570.979
646.599	1574.247
646.727	1577.660
646.855	1576.784
646.983	1570.072
647.112	1582.990
647.240	1574.299
647.368	1561.289
647.496	1563.113
647.624	1559.103
647.752	1561.938
647.880	1562.691
648.008	1577.691
648.137	1549.072
648.265	1552.722
648.393	1571.711
648.521	1558.381
648.649	1555.361
648.777	1551.216
648.905	1553.784
649.033	1532.990
649.162	1555.701
649.290	1536.175
649.418	1531.670
649.546	1541.247
649.674	1533.454
649.802	1541.072
649.930	1526.124
650.058	1534.918
650.187	1535.124
650.315	1534.753
650.443	1518.918
650.571	1525.639
650.699	1529.814
650.827	1532.887
650.955	1532.021
651.083	1522.918
651.212	1519.340
651.340	1510.979
651.468	1504.546
651.596	1517.649
651.724	1519.577
651.852	1505.144
651.980	1485.649
652.108	1501.278
652.237	1496.175
652.365	1496.423
652.493	1490.021
652.621	1494.320
652.749	1488.433
652.877	1484.876
653.005	1488.897
653.133	1496.505
653.262	1493.175
653.390	1483.577
653.518	1471.711
653.646	1473.216
653.774	1479.948
653.902	1489.103
654.030	1467.567
654.158	1460.711
654.287	1477.062
654.415	1456.794
654.543	1462.825
654.671	1456.887
654.799	1449.536
654.927	1455.175
655.055	1445.948
655.183	1438.825
655.312	1442.175
655.440	1441.845
655.568	1435.464
655.696	1454.278
655.824	1441.619
655.952	1430.588
656.080	1425.371
656.208	1441.278
656.337	1424.711
656.465	1431.608
656.593	1432.711
656.721	1424.309
656.849	1427.237
656.977	1419.021
657.105	1417.979
657.233	1406.649
657.362	1418.423
657.490	1402.876
657.618	1399.474
657.746	1406.784
657.874	1395.505
658.002	1403.237
658.130	1389.155
658.258	1396.423
658.387	1399.433
658.515	1381.052
658.643	1384.247
658.771	1389.794
658.899	1374.515
659.027	1378.093
659.155	1375.856
659.283	1366.289
659.412	1363.495
659.540	1361.608
659.668	1357.619
659.796	1352.485
659.924	1359.268
660.052	1361.711
660.180	1336.454
660.308	1341.000
660.437	1342.598
660.565	1340.629
660.693	1331.227
660.821	1330.031
660.949	1342.742
661.077	1328.608
661.205	1328.691
661.333	1319.258
661.462	1331.206
661.590	1329.361
661.718	1326.309
661.846	1311.608
661.974	1315.938
662.102	1323.268
662.230	1314.670
662.358	1309.381
662.487	1303.979
662.615	1306.918
662.743	1306.701
662.871	1299.381
662.999	1299.124
663.127	1295.536
663.255	1289.866
663.383	1301.361
663.512	1304.392
663.640	1295.866
663.768	1285.619
663.896	1284.155
664.024	1284.526
664.152	1285.474
664.280	1285.619
664.408	1271.082
664.537	1284.588
664.665	1270.309
664.793	1264.165
664.921	1267.536
665.049	1264.588
665.177	1282.247
665.305	1270.598
665.433	1268.639
665.562	1267.680
665.690	1259.546
665.818	1257.144
665.946	1258.052
666.074	1251.608
666.202	1260.711
666.330	1251.082
666.458	1244.722
666.587	1246.835
666.715	1259.165
666.843	1258.000
666.971	1249.907
667.099	1251.990
667.227	1242.515
667.355	1245.082
667.483	1229.856
667.612	1235.289
667.740	1230.247
667.868	1244.299
667.996	1234.711
668.124	1239.134
668.252	1225.856
668.380	1225.495
668.508	1238.557
668.637	1218.134
668.765	1210.010
668.893	1218.701
669.021	1221.526
669.149	1203.093
669.277	1202.742
669.405	1208.536
669.533	1203.701
669.662	1206.237
669.790	1186.856
669.918	1196.309
670.046	1191.412
670.174	1196.649
670.302	1187.165
670.430	1172.670
670.558	1176.722
670.687	1165.402
670.815	1175.619
670.943	1180.186
671.071	1171.134
671.199	1162.639
671.327	1169.804
671.455	1153.794
671.583	1155.052
671.712	1146.897
671.840	1148.072
671.968	1150.340
672.096	1141.247
672.224	1139.433
672.352	1132.041
672.480	1131.021
672.608	1128.062
672.737	1123.691
672.865	1117.258
672.993	1113.062
673.121	1114.804
673.249	1115.010
673.377	1102.639
673.505	1098.464
673.633	1092.423
673.762	1098.732
673.890	1099.443
674.018	1085.423
674.146	1078.639
674.274	1079.784
674.402	1083.670
674.530	1072.608
674.658	1068.052
674.787	1058.165
674.915	1060.928
675.043	1058.804
675.171	1055.113
675.299	1046.196
675.427	1037.505
675.555	1032.907
675.683	1036.000
675.812	1021.526
675.940	1027.186
676.068	1031.113
676.196	1018.948
676.324	1022.722
676.452	1019.938
676.580	1009.969
676.708	1010.784
676.837	1020.918
676.965	1003.299
677.093	998.907
677.221	1000.124
677.349	981.670
677.477	987.639
677.605	987.021
677.733	979.216
677.862	980.856
677.990	982.247
678.118	975.979
678.246	961.701
678.374	964.289
678.502	960.247
678.630	954.773
678.758	961.526
678.887	957.649
679.015	954.299
679.143	954.722
679.271	943.062
679.399	941.371
679.527	941.639
679.655	938.567
679.783	938.412
679.912	923.660
680.040	936.948
680.168	929.124
680.296	919.443
680.424	933.206
680.552	919.701
680.680	921.629
680.808	915.258
680.937	918.144
681.065	910.320
681.193	910.124
681.321	904.371
681.449	911.155
681.577	903.268
681.705	889.268
681.833	902.784
681.962	889.495
682.090	898.598
682.218	889.371
682.346	890.753
682.474	884.361
682.602	890.361
682.730	887.773
682.858	889.010
682.987	887.433
683.115	870.423
683.243	880.309
683.371	871.959
683.499	866.402
683.627	884.680
683.755	870.237
683.883	871.000
684.012	866.021
684.140	865.206
684.268	859.876
684.396	858.371
684.524	859.412
684.652	859.134
684.780	860.062
684.908	860.990
685.037	852.897
685.165	856.845
685.293	863.165
685.421	850.144
685.549	849.825
685.677	853.299
685.805	843.474
685.933	842.732
686.062	844.268
686.190	833.887
686.318	841.340
686.446	837.412
686.574	840.072
686.702	838.103
686.830	843.598
686.958	834.701
687.087	838.309
687.215	824.031
687.343	821.773
687.471	829.103
687.599	821.763
687.727	817.464
687.855	818.619
687.983	812.392
688.112	806.175
688.240	811.155
688.368	814.464
688.496	806.660
688.624	805.804
688.752	805.887
688.880	793.825
689.008	792.835
689.137	800.938
689.265	798.959
689.393	789.495
689.521	791.309
689.649	791.845
689.777	785.485
689.905	782.794
690.033	789.186
690.162	768.113
690.290	771.031
690.418	772.371
690.546	777.990
690.674	777.588
690.802	766.835
690.930	761.598
691.058	762.979
691.187	761.402
691.315	753.907
691.443	756.639
691.571	755.887
691.699	747.371
691.827	743.010
691.955	736.835
692.083	747.897
692.212	744.320
692.340	739.938
692.468	736.629
692.596	731.134
692.724	728.526
692.852	732.206
692.980	732.103
693.108	720.794
693.237	723.206
693.365	717.113
693.493	716.464
693.621	709.629
693.749	714.856
693.877	709.845
694.005	702.423
694.133	709.423
694.262	704.990
694.390	697.907
694.518	703.237
694.646	693.948
694.774	695.258
694.902	686.804
695.030	694.629
695.158	686.330
695.287	689.907
695.415	675.320
695.543	682.876
695.671	676.959
695.799	679.598
695.927	668.289
696.055	669.340
696.183	675.134
696.312	663.598
696.440	664.670
696.568	662.144
696.696	662.021
696.824	654.979
696.952	661.113
697.080	648.742
697.208	652.010
697.337	639.948
697.465	648.887
697.593	649.258
697.721	641.351
697.849	648.722
697.977	643.351
698.105	642.103
698.233	636.742
698.362	636.515
698.490	634.515
698.618	624.165
698.746	627.216
698.874	621.526
699.002	618.856
699.130	627.907
699.258	623.031
699.387	616.340
699.515	615.082
699.643	616.361
699.771	609.711
699.899	617.000
700.027	604.041
700.155	612.608
700.283	606.216
700.412	602.258
700.540	605.227
700.668	590.691
700.796	596.928
700.924	590.289
701.052	594.289
701.180	590.732
701.308	585.381
701.437	579.825
701.565	589.433
701.693	578.268
701.821	580.629
701.949	572.155
702.077	574.361
702.205	570.701
702.333	574.330
702.462	571.557
702.590	566.062
702.718	563.165
702.846	560.928
702.974	557.052
703.102	558.804
703.230	561.175
703.358	546.773
703.487	549.247
703.615	552.062
703.743	540.979
703.871	548.268
703.999	542.928
704.127	546.969
704.255	535.124
704.383	539.062
704.512	530.897
704.640	537.165
704.768	529.062
704.896	525.186
705.024	521.155
705.152	521.969
705.280	521.588
705.408	516.619
705.537	515.680
705.665	516.990
705.793	514.165
705.921	511.031
706.049	510.887
706.177	508.103
706.305	509.814
706.433	507.546
706.562	495.948
706.690	496.320
706.818	495.309
706.946	495.134
707.074	490.928
707.202	485.732
707.330	492.412
707.458	495.753
707.587	484.351
707.715	482.165
707.843	485.216
707.971	478.969
708.099	476.289
708.227	474.753
708.355	472.577
708.483	477.351
708.612	478.268
708.740	471.907
708.868	467.124
708.996	466.454
709.124	467.691
709.252	459.639
709.380	463.361
709.508	455.320
709.637	452.753
709.765	454.000
709.893	446.722
710.021	455.175
710.149	449.464
710.277	450.443
710.405	455.196
710.533	448.670
710.662	446.928
710.790	447.711
710.918	437.155
711.046	440.814
711.174	441.021
711.302	441.021
711.430	439.443
711.558	444.258
711.687	437.227
711.815	433.732
711.943	439.711
712.071	430.598
712.199	431.062
712.327	429.722
712.455	433.918
712.583	429.557
712.712	424.887
712.840	421.897
712.968	424.814
713.096	425.804
713.224	422.371
713.352	422.289
713.480	417.691
713.608	413.825
713.737	419.082
713.865	414.928
713.993	415.505
714.121	412.330
714.249	414.278
714.377	403.959
714.505	413.454
714.633	409.856
714.762	404.247
714.890	404.887
715.018	405.361
715.146	405.495
715.274	400.237
715.402	401.186
715.530	398.227
715.658	394.814
715.787	396.670
715.915	394.526
716.043	394.124
716.171	390.134
716.299	395.320
716.427	390.918
716.555	388.309
716.683	387.464
716.812	387.845
716.940	393.598
717.068	385.041
717.196	387.938
717.324	382.175
717.452	378.041
717.580	380.278
717.708	376.103
717.837	377.515
717.965	377.113
718.093	374.701
718.221	368.309
718.349	370.948
718.477	372.897
718.605	370.062
718.733	366.938
718.862	369.763
718.990	364.289
719.118	360.144
719.246	368.711
719.374	361.309
719.502	363.062
719.630	362.536
719.758	358.412
719.887	359.907
720.015	359.856
720.143	356.845
720.271	362.186
720.399	350.021
720.527	348.474
720.655	347.876
720.783	349.701
720.912	348.010
721.040	345.907
721.168	348.433
721.296	348.216
721.424	344.608
721.552	342.165
721.680	338.701
721.808	343.577
721.937	342.299
722.065	335.959
722.193	333.887
722.321	333.485
722.449	332.423
722.577	331.175
722.705	331.701
722.833	328.680
722.962	329.320
723.090	323.474
723.218	327.299
723.346	324.928
723.474	323.598
723.602	322.000
723.730	322.866
723.858	321.278
723.987	317.639
724.115	319.701
724.243	315.794
724.371	315.845
724.499	319.680
724.627	310.948
724.755	311.969
724.883	312.485
725.012	308.072
725.140	305.546
725.268	314.784
725.396	305.041
725.524	305.062
725.652	301.258
725.780	305.649
725.908	295.701
726.037	298.412
726.165	298.113
726.293	298.907
726.421	296.340
726.549	296.000
726.677	294.186
726.805	294.155
726.933	295.660
727.062	291.856
727.190	285.732
727.318	287.959
727.446	290.680
727.574	292.567
727.702	285.144
727.830	286.412
727.958	282.897
728.087	281.103
728.215	286.278
728.343	277.443
728.471	279.567
728.599	275.722
728.727	277.722
728.855	277.258
728.983	276.320
729.112	273.454
729.240	272.072
729.368	270.701
729.496	268.155
729.624	269.577
729.752	270.742
729.880	269.979
730.008	271.577
730.137	268.773
730.265	269.000
730.393	265.454
730.521	262.340
730.649	266.392
730.777	264.856
730.905	262.959
731.033	260.835
731.162	259.412
731.290	261.186
731.418	256.072
731.546	258.876
731.674	248.278
731.802	254.103
731.930	257.577
732.058	253.608
732.187	254.072
732.315	254.742
732.443	253.392
732.571	247.340
732.699	253.680
732.827	250.866
732.955	245.258
733.083	244.670
733.212	243.948
733.340	247.608
733.468	250.392
733.596	246.825
733.724	242.887
733.852	243.897
733.980	242.330
734.108	238.979
734.237	237.505
734.365	235.309
734.493	236.216
734.621	240.629
734.749	234.175
734.877	234.082
735.005	231.041
735.133	234.515
735.262	234.258
735.390	231.990
735.518	231.392
735.646	230.278
735.774	227.948
735.902	232.722
736.030	227.072
736.158	232.278
736.287	229.299
736.415	232.557
736.543	229.825
736.671	224.918
736.799	224.876
736.927	222.990
737.055	226.052
737.183	224.742
737.312	223.567
737.440	220.082
737.568	223.680
737.696	224.526
737.824	222.093
737.952	219.753
738.080	221.309
738.208	220.062
738.337	213.825
738.465	213.918
738.593	212.021
738.721	214.588
738.849	219.196
738.977	217.629
739.105	210.052
739.233	213.773
739.362	212.670
739.490	209.196
739.618	207.866
739.746	207.412
739.874	209.557
740.002	211.608
740.130	205.732
740.258	207.175
740.387	208.969
740.515	205.515
740.643	205.928
740.771	206.134
740.899	206.155
741.027	201.588
741.155	202.000
741.283	200.959
741.412	199.299
741.540	199.856
741.668	199.649
741.796	197.103
741.924	198.701
742.052	196.918
742.180	198.340
742.308	196.340
742.437	197.845
742.565	197.113
742.693	195.134
742.821	194.979
742.949	194.340
743.077	195.505
743.205	194.093
743.333	193.165
743.462	192.938
743.590	188.979
743.718	189.206
743.846	188.866
743.974	190.454
744.102	188.062
744.230	187.907
744.358	189.268
744.487	189.948
744.615	184.629
744.743	186.134
744.871	186.959
744.999	184.330
745.127	182.742
745.255	181.866
745.383	183.495
745.512	184.103
745.640	183.412
745.768	183.608
745.896	180.505
746.024	180.320
746.152	181.588
746.280	181.876
746.408	181.320
746.537	181.722
746.665	184.825
746.793	178.928
746.921	181.856
747.049	178.495
747.177	178.134
747.305	174.103
747.433	177.990
747.562	176.825
747.690	176.670
747.818	176.876
747.946	174.567
748.074	170.340
748.202	172.041
748.330	173.237
748.458	177.082
748.587	172.031
748.715	170.289
748.843	169.485
748.971	170.536
749.099	172.495
749.227	169.753
749.355	171.082
749.483	168.979
749.612	166.619
749.740	169.072
749.868	167.948
749.996	165.608
750.124	165.330
750.252	168.052
750.380	165.979
750.508	167.031
750.637	161.990
750.765	166.629
750.893	165.515
751.021	163.495
751.149	164.979
751.277	165.072
751.405	166.649
751.533	161.619
751.662	166.784
751.790	160.866
751.918	162.948
752.046	161.546
752.174	158.928
752.302	161.866
752.430	159.443
752.558	160.691
752.687	159.773
752.815	160.515
752.943	158.351
753.071	158.351
753.199	159.763
753.327	157.814
753.455	155.629
753.583	156.701
753.712	156.701
753.840	155.464
753.968	158.814
754.096	152.392
754.224	152.887
754.352	152.907
754.480	153.773
754.608	155.371
754.737	150.340
754.865	154.237
754.993	153.021
755.121	150.711
755.249	149.979
755.377	149.402
755.505	150.454
755.633	150.845
755.762	147.722
755.890	150.052
756.018	149.639
756.146	148.113
756.274	147.165
756.402	148.588
756.530	148.258
756.658	147.845
756.787	148.351
756.915	145.381
757.043	145.928
757.171	147.196
757.299	145.588
757.427	145.876
757.555	144.959
757.683	146.495
757.812	144.412
757.940	144.742
758.068	145.082
758.196	140.577
758.324	142.691
758.452	140.784
758.580	140.392
758.708	142.258
758.837	143.763
758.965	141.753
759.093	140.577
759.221	139.670
759.349	141.237
759.477	142.093
759.605	140.165
759.733	140.938
759.862	142.052
759.990	138.000
760.118	137.557
760.246	139.124
760.374	137.588
760.502	135.722
760.630	138.320
760.758	137.732
760.887	136.660
761.015	136.433
761.143	135.763
761.271	136.825
761.399	135.124
761.527	137.031
761.655	135.433
761.783	136.577
761.912	135.082
762.040	135.443
762.168	135.309
762.296	135.278
762.424	133.371
762.552	133.454
762.680	132.196
762.808	131.928
762.937	133.052
763.065	131.670
763.193	134.773
763.321	134.320
763.449	131.361
763.577	128.969
763.705	129.247
763.833	133.216
763.962	131.495
764.090	130.485
764.218	131.742
764.346	127.557
764.474	129.732
764.602	131.278
764.730	130.959
764.858	129.289
764.987	129.144
765.115	128.536
765.243	130.340
765.371	128.103
765.499	125.165
765.627	127.608
765.755	127.515
765.883	125.000
766.012	127.784
766.140	126.577
766.268	125.969
766.396	126.062
766.524	126.814
766.652	124.866
766.780	123.866
766.908	125.948
767.037	126.515
767.165	124.825
767.293	125.825
767.421	124.794
767.549	124.546
767.677	123.680
767.805	125.907
767.933	125.660
768.062	124.526
768.190	124.835
768.318	123.175
768.446	123.670
768.574	122.309
768.702	124.928
768.830	123.268
768.958	121.526
769.087	122.392
769.215	123.577
769.343	122.309
769.471	123.979
769.599	123.990
769.727	123.464
769.855	123.742
769.983	120.876
770.112	121.598
770.240	122.433
770.368	121.546
770.496	121.753
770.624	120.784
770.752	123.608
770.880	122.515
771.008	120.309
771.137	121.711
771.265	119.526
771.393	122.237
771.521	119.959
771.649	120.186
771.777	118.825
771.905	120.216
772.033	124.454
772.162	119.289
772.290	116.371
772.418	118.113
772.546	117.794
772.674	121.010
772.802	119.907
772.930	117.546
773.058	117.845
773.187	118.299
773.315	118.691
773.443	117.928
773.571	118.464
773.699	116.629
773.827	118.175
773.955	118.794
774.083	118.196
774.212	115.938
774.340	116.814
774.468	115.361
774.596	116.247
774.724	117.701
774.852	117.165
774.980	115.928
775.108	116.144
775.237	115.649
775.365	114.948
775.493	115.608
775.621	114.392
775.749	116.010
775.877	117.278
776.005	117.258
776.133	116.505
776.262	114.784
776.390	115.856
776.518	114.536
776.646	115.186
776.774	111.825
776.902	114.505
777.030	113.103
777.158	114.247
777.287	115.340
777.415	114.433
777.543	113.216
777.671	113.608
777.799	112.856
777.927	116.093
778.055	112.856
778.183	114.856
778.312	113.464
778.440	114.289
778.568	113.526
778.696	112.536
778.824	112.804
778.952	112.969
779.080	110.876
779.208	113.495
779.337	111.041
779.465	110.773
779.593	111.639
779.721	113.289
779.849	111.825
779.977	113.433
780.105	112.691
780.233	111.907
780.362	110.866
780.490	110.866
780.618	110.969
780.746	110.412
780.874	109.753
781.002	110.629
781.130	110.010
781.258	109.845
781.387	111.371
781.515	109.866
781.643	109.670
781.771	111.567
781.899	109.845
782.027	111.175
782.155	110.402
782.283	110.268
782.412	108.979
782.540	111.103
782.668	110.052
782.796	110.227
782.924	110.948
783.052	108.763
783.180	108.093
783.308	109.680
783.437	109.526
783.565	109.052
783.693	109.959
783.821	109.629
783.949	110.134
784.077	109.175
784.205	109.021
784.333	109.495
784.462	109.567
784.590	111.206
784.718	108.485
784.846	107.289
784.974	107.412
785.102	109.010
785.230	109.103
785.358	107.577
785.487	107.330
785.615	107.278
785.743	108.412
785.871	107.959
785.999	109.072
786.127	108.299
786.255	110.165
786.383	108.876
786.512	108.340
786.640	107.876
786.768	107.845
786.896	106.845
787.024	107.948
787.152	106.794
787.280	107.577
787.408	109.536
787.537	107.268
787.665	107.330
787.793	106.361
787.921	108.814
788.049	106.928
788.177	105.186
788.305	106.701
788.433	106.608
788.562	106.309
788.690	107.381
788.818	106.289
788.946	105.711
789.074	105.299
789.202	106.144
789.330	105.144
789.458	106.959
789.587	105.309
789.715	103.680
789.843	105.505
789.971	107.227
790.099	106.206
790.227	104.619
790.355	106.206
790.483	106.402
790.612	105.557
790.740	106.649
790.868	106.732
790.996	105.845
791.124	105.175
791.252	105.361
791.380	105.948
791.508	104.876
791.637	105.309
791.765	104.948
791.893	104.000
792.021	103.495
792.149	105.835
792.277	105.546
792.405	105.701
792.533	104.959
792.662	105.031
792.790	105.577
792.918	106.361
793.046	103.845
793.174	105.072
793.302	105.495
793.430	105.732
793.558	105.464
793.687	105.856
793.815	105.072
793.943	104.144
794.071	102.814
794.199	103.588
794.327	103.546
794.455	104.247
794.583	102.763
794.712	103.278
794.840	103.041
794.968	104.062
795.096	102.072
795.224	103.691
795.352	104.505
795.480	103.938
795.608	104.443
795.737	104.577
795.865	104.082
795.993	103.186
796.121	104.371
796.249	104.175
796.377	103.155
796.505	103.010
796.633	104.567
796.762	104.876
796.890	104.433
797.018	103.330
797.146	103.268
797.274	102.351
797.402	101.928
797.530	102.773
797.658	103.742
797.787	103.619
797.915	102.856
798.043	103.979
798.171	103.485
798.299	102.227
798.427	102.897
798.555	102.124
798.683	102.670
798.812	102.773
798.940	103.763
799.068	103.227
799.196	103.041
799.324	102.918
799.452	102.268
799.580	102.773
799.708	102.680
799.837	101.990
799.965	102.701
800.093	102.598
800.221	102.876
800.349	103.990
800.477	101.918
800.605	101.361
800.733	102.649
800.862	102.000
800.990	102.000
801.118	101.763
801.246	101.670
801.374	102.495
801.502	102.268
801.630	102.113
801.758	102.278
801.887	100.299
802.015	101.577
802.143	102.082
802.271	102.433
802.399	102.268
802.527	101.835
802.655	100.598
802.783	101.423
802.912	101.907
803.040	101.887
803.168	101.474
803.296	102.103
803.424	100.773
803.552	101.402
803.680	101.412
803.808	100.918
803.937	101.186
804.065	101.660
804.193	100.763
804.321	101.247
804.449	101.495
804.577	99.763
804.705	100.990
804.833	99.670
804.962	100.052
805.090	100.804
805.218	100.144
805.346	100.948
805.474	102.062
805.602	101.732
805.730	101.216
805.858	101.072
805.987	99.804
806.115	100.948
806.243	101.485
806.371	99.557
806.499	100.990
806.627	101.402
806.755	100.649
806.883	101.237
807.012	100.196
807.140	100.031
807.268	100.990
807.396	101.670
807.524	101.320
807.652	100.536
807.780	101.433
807.908	101.299
808.037	101.320
808.165	101.155
808.293	100.588
808.421	99.784
808.549	100.866
808.677	99.938
808.805	100.165
808.933	99.660
809.062	100.278
809.190	100.773
809.318	99.866
809.446	100.464
809.574	100.072
809.702	100.856
809.830	100.082
809.958	100.526
810.087	100.041
810.215	102.216
810.343	101.258
810.471	102.144
810.599	101.351
810.727	102.959
810.855	99.814
810.983	101.804
811.112	100.825
811.240	98.907
811.368	99.649
811.496	101.000
811.624	101.289
811.752	101.072
811.880	100.392
812.008	100.577
812.137	100.124
812.265	99.938
812.393	99.753
812.521	100.093
812.649	100.299
812.777	100.773
812.905	98.835
813.033	99.835
813.162	97.979
813.290	100.907
813.418	99.876
813.546	99.577
813.674	99.649
813.802	100.062
813.930	98.577
814.058	99.588
814.187	99.423
814.315	98.938
814.443	100.680
814.571	97.887
814.699	99.979
814.827	100.505
814.955	99.619
815.083	100.227
815.212	100.216
815.340	98.773
815.468	99.474
815.596	99.485
815.724	99.773
815.852	99.495
815.980	98.907
816.108	100.021
816.237	99.536
816.365	100.649
816.493	99.454
816.621	98.021
816.749	99.526
816.877	98.072
817.005	98.876
817.133	98.660
817.262	99.763
817.390	101.186
817.518	99.990
817.646	98.546
817.774	98.876
817.902	100.433
818.030	98.495
818.158	99.443
818.287	100.021
818.415	99.577
818.543	97.474
818.671	99.742
818.799	100.010
818.927	99.361
819.055	98.505
819.183	101.216
819.312	99.093
819.440	98.567
819.568	99.330
819.696	100.113
819.824	98.608
819.952	98.701
820.080	98.443
820.208	98.763
820.337	100.103
820.465	98.784
820.593	97.619
820.721	99.928
820.849	98.763
820.977	98.784
821.105	99.392
821.233	99.103
821.362	98.948
821.490	98.258
821.618	98.546
821.746	98.691
821.874	97.670
822.002	98.423
822.130	99.247
822.258	98.474
822.387	98.052
822.515	98.588
822.643	96.866
822.771	97.062
822.899	99.268
823.027	98.155
823.155	97.887
823.283	99.247
823.412	100.330
823.540	100.340
823.668	100.206
823.796	98.247
823.924	99.134
824.052	98.165
824.180	97.577
824.308	98.629
824.437	99.216
824.565	97.144
824.693	98.278
824.821	98.928
824.949	99.670
825.077	97.536
825.205	97.505
825.333	97.474
825.462	98.258
825.590	97.577
825.718	97.639
825.846	99.732
825.974	98.062
826.102	99.165
826.230	97.155
826.358	98.268
826.487	98.062
826.615	96.186
826.743	98.443
826.871	98.742
826.999	99.485
827.127	98.381
827.255	97.278
827.383	97.402
827.512	96.845
827.640	98.660
827.768	97.773
827.896	98.701
828.024	98.134
828.152	98.340
828.280	99.691
828.408	98.402
828.537	98.175
828.665	96.990
828.793	97.505
828.921	98.557
829.049	97.629
829.177	96.814
829.305	98.216
829.433	97.309
829.562	97.062
829.690	99.402
829.818	98.588
829.946	97.361
830.074	97.773
830.202	98.794
830.330	97.711
830.458	99.041
830.587	98.165
830.715	98.165
830.843	97.299
830.971	97.381
831.099	97.175
831.227	97.588
831.355	97.660
831.483	99.052
831.612	97.876
831.740	99.258
831.868	98.381
831.996	99.021
832.124	98.990
832.252	97.443
832.380	98.330
832.508	97.990
832.637	98.299
832.765	98.990
832.893	98.557
833.021	98.381
833.149	98.990
833.277	98.206
833.405	98.021
833.533	97.649
833.662	98.134
833.790	97.351
833.918	98.825
834.046	98.330
834.174	99.206
834.302	98.103
834.430	97.670
834.558	97.515
834.687	98.268
834.815	96.814
834.943	97.639
835.071	98.835
835.199	97.918
835.327	97.825
835.455	98.072
835.583	98.639
835.712	97.763
835.840	98.155
835.968	97.134
836.096	98.072
836.224	98.021
836.352	99.371
836.480	98.113
836.608	98.567
836.737	99.742
836.865	98.835
836.993	97.237
837.121	98.577
837.249	97.876
837.377	97.701
837.505	96.680
837.633	97.907
837.762	96.144
837.890	96.969
838.018	97.763
838.146	97.340
838.274	98.082
838.402	98.876
838.530	97.392
838.658	97.505
838.787	96.845
838.915	98.361
839.043	98.113
839.171	98.113
839.299	97.680
839.427	97.299
839.555	98.660
839.683	98.588
839.812	97.814
839.940	96.990
840.068	97.887
840.196	97.701
840.324	97.515
840.452	97.381
840.580	97.340
840.708	98.691
840.837	97.454
840.965	98.577
841.093	98.577
841.221	98.876
841.349	98.464
841.477	98.557
841.605	98.897
841.733	97.062
841.862	99.144
841.990	97.794
842.118	97.969
842.246	96.268
842.374	97.433
842.502	97.701
842.630	96.907
842.758	98.103
842.887	98.196
843.015	98.278
843.143	97.979
843.271	97.680
843.399	98.278
843.527	97.361
843.655	97.598
843.783	98.196
843.912	97.866
844.040	98.856
844.168	98.639
844.296	98.629
844.424	100.062
844.552	98.268
844.680	97.206
844.808	99.701
844.937	98.196
845.065	97.660
845.193	98.505
845.321	97.206
845.449	97.423
845.577	98.124
845.705	97.938
845.833	99.722
845.962	98.804
846.090	97.536
846.218	97.227
846.346	98.443
846.474	97.629
846.602	97.763
846.730	97.938
846.858	97.258
846.987	97.526
847.115	98.072
847.243	98.856
847.371	98.206
847.499	96.062
847.627	97.814
847.755	97.196
847.883	96.907
848.012	97.485
848.140	97.216
848.268	98.443
848.396	95.845
848.524	98.773
848.652	98.381
848.780	97.031
848.908	99.598
849.037	98.196
849.165	98.711
849.293	96.392
849.421	97.845
849.549	96.722
849.677	97.082
849.805	99.381
849.933	99.258
850.062	98.928
850.190	97.825
850.318	97.412
850.446	98.680
850.574	97.804
850.702	96.948
850.830	97.495
850.958	97.680
851.087	99.990
851.215	97.691
851.343	97.598
851.471	97.918
851.599	97.381
851.727	97.928
851.855	97.629
851.983	98.825
852.112	98.351
852.240	98.505
852.368	97.876
852.496	97.041
852.624	96.691
852.752	96.485
852.880	97.701
853.008	97.546
853.137	98.134
853.265	98.918
853.393	97.701
853.521	98.443
853.649	99.165
853.777	98.247
853.905	97.742
854.033	97.464
854.162	98.216
854.290	97.206
854.418	96.691
854.546	95.649
854.674	98.289
854.802	96.784
854.930	96.309
855.058	97.206
855.187	98.845
855.315	96.711
855.443	99.000
855.571	98.948
855.699	98.619
855.827	96.701
855.955	96.907
856.083	97.134
856.212	98.505
856.340	98.959
856.468	97.134
856.596	97.907
856.724	97.268
856.852	98.124
856.980	97.907
857.108	98.629
857.237	98.464
857.365	97.629
857.493	97.515
857.621	97.320
857.749	97.773
857.877	97.093
858.005	99.072
858.133	96.639
858.262	98.103
858.390	98.505
858.518	96.866
858.646	98.113
858.774	98.784
858.902	98.495
859.030	98.082
859.158	98.361
859.287	97.732
859.415	97.258
859.543	96.876
859.671	98.732
859.799	99.412
859.927	98.227
860.055	98.093
860.183	97.557
860.312	97.155
860.440	96.711
860.568	98.000
860.696	98.381
860.824	97.990
860.952	96.979
861.080	97.876
861.208	97.464
861.337	97.505
861.465	97.278
861.593	98.474
861.721	98.021
861.849	97.928
861.977	96.567
862.105	97.876
862.233	98.062
862.362	97.979
862.490	97.423
862.618	98.144
862.746	97.918
862.874	99.031
863.002	98.124
863.130	98.124
863.258	98.670
863.387	97.464
863.515	98.093
863.643	97.732
863.771	98.258
863.899	98.186
864.027	99.351
864.155	98.660
864.283	96.887
864.412	98.557
864.540	98.289
864.668	97.330
864.796	98.742
864.924	98.124
865.052	97.711
865.180	98.134
865.308	98.186
865.437	97.598
865.565	97.371
865.693	97.134
865.821	97.206
865.949	99.144
866.077	99.165
866.205	96.268
866.333	97.072
866.462	98.216
866.590	98.608
866.718	97.649
866.846	97.856
866.974	98.567
867.102	96.588
867.230	97.309
867.358	99.227
867.487	98.134
867.615	97.866
867.743	98.536
867.871	98.711
867.999	98.526
868.127	98.072
868.255	98.649
868.383	99.495
868.512	98.928
868.640	98.629
868.768	99.794
868.896	98.474
869.024	98.546
869.152	98.165
869.280	98.072
869.408	98.825
869.537	97.897
869.665	98.093
869.793	98.722
869.921	98.701
870.049	99.732
870.177	99.485
870.305	99.691
870.433	99.175
870.562	98.876
870.690	98.381
870.818	98.753
870.946	99.072
871.074	97.866
871.202	97.165
871.330	98.794
871.458	98.711
871.587	99.041
871.715	97.907
871.843	98.351
871.971	98.990
872.099	97.722
872.227	97.918
872.355	97.691
872.483	98.124
872.612	98.701
872.740	97.887
872.868	97.227
872.996	97.216
873.124	99.216
873.252	100.753
873.380	98.402
873.508	98.216
873.637	98.000
873.765	98.082
873.893	97.660
874.021	99.619
874.149	99.701
874.277	99.113
874.405	98.711
874.533	99.835
874.662	98.103
874.790	98.155
874.918	97.856
875.046	97.588
875.174	98.196
875.302	98.392
875.430	97.969
875.558	97.402
875.687	97.546
875.815	99.464
875.943	98.526
876.071	99.340
876.199	99.546
876.327	98.485
876.455	98.825
876.583	98.649
876.712	98.227
876.840	97.485
876.968	99.082
877.096	99.062
877.224	99.577
877.352	97.990
877.480	97.804
877.608	98.711
877.737	98.021
877.865	97.866
877.993	98.268
878.121	99.165
878.249	100.010
878.377	97.495
878.505	97.299
878.633	98.969
878.762	98.515
878.890	97.794
879.018	98.567
879.146	99.866
879.274	99.082
879.402	99.794
879.530	98.567
879.658	99.175
879.787	98.021
879.915	98.753
880.043	99.155
880.171	99.134
880.299	97.928
880.427	96.948
880.555	98.175
880.683	98.206
880.812	99.155
880.940	98.155
881.068	98.237
881.196	98.825
881.324	99.052
881.452	98.629
881.580	98.670
881.708	98.062
881.837	99.588
881.965	97.629
882.093	98.052
882.221	98.340
882.349	97.742
882.477	99.206
882.605	99.557
882.733	98.412
882.862	99.732
882.990	97.856
883.118	99.577
883.246	99.278
883.374	99.144
883.502	97.969
883.630	100.959
883.758	99.990
883.887	98.299
884.015	99.093
884.143	99.258
884.271	99.701
884.399	98.866
884.527	98.990
884.655	98.536
884.783	99.887
884.912	99.103
885.040	99.340
885.168	98.443
885.296	98.309
885.424	99.691
885.552	99.485
885.680	98.278
885.808	98.072
885.937	100.330
886.065	97.845
886.193	98.526
886.321	98.794
886.449	99.474
886.577	99.082
886.705	99.165
886.833	98.216
886.962	99.412
887.090	98.412
887.218	98.196
887.346	97.722
887.474	98.691
887.602	98.680
887.730	96.948
887.858	98.216
887.987	98.660
888.115	98.351
888.243	100.629
888.371	99.474
888.499	99.505
888.627	97.515
888.755	99.082
888.883	99.454
889.012	99.474
889.140	98.392
889.268	98.959
889.396	99.186
889.524	99.041
889.652	98.969
889.780	98.969
889.908	98.979
890.037	99.412
890.165	96.938
890.293	99.072
890.421	98.928
890.549	99.021
890.677	98.299
890.805	99.474
890.933	99.216
891.062	98.990
891.190	98.907
891.318	100.505
891.446	99.289
891.574	97.701
891.702	97.505
891.830	98.526
891.958	98.216
892.087	99.711
892.215	99.041
892.343	100.351
892.471	99.598
892.599	99.371
892.727	100.361
892.855	100.907
892.983	99.876
893.112	99.371
893.240	100.969
893.368	99.918
893.496	100.619
893.624	98.526
893.752	98.959
893.880	98.464
894.008	99.072
894.137	100.557
894.265	99.454
894.393	99.299
894.521	98.536
894.649	99.990
894.777	99.330
894.905	98.639
895.033	102.021
895.162	100.381
895.290	99.361
895.418	101.000
895.546	101.206
895.674	99.423
895.802	98.402
895.930	98.443
896.058	98.835
896.187	99.711
896.315	101.278
896.443	99.557
896.571	99.268
896.699	100.155
896.827	98.866
896.955	99.845
897.083	99.577
897.212	101.289
897.340	98.485
897.468	99.206
897.596	99.722
897.724	99.093
897.852	99.608
897.980	99.175
898.108	99.268
898.237	99.103
898.365	99.340
898.493	99.804
898.621	99.041
898.749	99.361
898.877	98.031
899.005	98.753
899.133	100.320
899.262	99.186
899.390	99.031
899.518	99.186
899.646	99.711
899.774	100.216
899.902	99.247
900.030	100.010
900.158	99.330
900.287	99.227
900.415	99.536
900.543	99.557
900.671	100.907
900.799	98.866
900.927	98.144
901.055	98.474
901.183	98.959
901.312	98.814
901.440	101.134
901.568	100.639
901.696	100.309
901.824	99.639
901.952	100.041
902.080	99.464
902.208	98.701
902.337	100.691
902.465	99.381
902.593	100.412
902.721	100.072
902.849	100.825
902.977	100.144
903.105	99.897
903.233	99.639
903.362	100.763
903.490	98.041
903.618	99.887
903.746	99.041
903.874	99.866
904.002	100.433
904.130	100.113
904.258	100.082
904.387	99.825
904.515	99.567
904.643	100.402
904.771	100.082
904.899	99.330
905.027	100.247
905.155	99.340
905.283	99.021
905.412	100.763
905.540	100.010
905.668	98.969
905.796	97.897
905.924	99.598
906.052	100.866
906.180	100.825
906.308	99.278
906.437	98.814
906.565	100.175
906.693	101.041
906.821	98.392
906.949	99.031
907.077	100.144
907.205	100.701
907.333	100.072
907.462	101.515
907.590	99.186
907.718	100.794
907.846	99.093
907.974	100.258
908.102	100.835
908.230	99.175
908.358	99.619
908.487	98.577
908.615	99.918
908.743	99.773
908.871	101.041
908.999	99.082
909.127	98.959
909.255	98.845
909.383	99.010
909.512	100.742
909.640	99.928
909.768	101.619
909.896	100.732
910.024	100.660
910.152	101.856
910.280	100.495
910.408	100.959
910.537	102.103
910.665	100.773
910.793	100.041
910.921	99.876
911.049	100.072
911.177	99.876
911.305	100.031
911.433	100.505
911.562	100.959
911.690	100.588
911.818	98.505
911.946	100.711
912.074	101.000
912.202	100.227
912.330	100.134
912.458	99.979
912.587	99.247
912.715	100.021
912.843	100.474
912.971	100.753
913.099	100.639
913.227	100.629
913.355	100.144
913.483	101.093
913.612	100.753
913.740	99.876
913.868	100.536
