90_100_0_Pol_at_750.00nm_cut_at_1179.00Y_02.dat
03.07.2023
11:19:04
cut middle at Y: 1179.00
top cursor: 1231 down cursor: 1127 mean of: 104 lines , 2560 datapoints
wavelength(nm)	intensity[arb. units]
585.996	13706.269
586.124	13476.173
586.252	13431.625
586.380	13432.538
586.508	13493.423
586.637	13561.692
586.765	13524.885
586.893	13543.279
587.021	13604.538
587.149	13593.125
587.277	13598.058
587.405	13620.769
587.533	13683.971
587.662	13681.548
587.790	13654.760
587.918	13677.558
588.046	13614.212
588.174	13650.596
588.302	13635.317
588.430	13630.144
588.558	13620.721
588.687	13655.692
588.815	13648.971
588.943	13610.413
589.071	13627.808
589.199	13610.885
589.327	13603.712
589.455	13640.606
589.583	13603.144
589.712	13560.500
589.840	13529.163
589.968	13525.567
590.096	13582.087
590.224	13577.067
590.352	13593.452
590.480	13540.375
590.608	13534.327
590.737	13555.433
590.865	13603.356
590.993	13458.981
591.121	13509.356
591.249	13482.721
591.377	13494.394
591.505	13586.173
591.633	13465.471
591.762	13453.548
591.890	13478.173
592.018	13591.163
592.146	13518.894
592.274	13506.500
592.402	13490.567
592.530	13694.375
592.658	13570.067
592.787	13592.798
592.915	13605.962
593.043	13503.808
593.171	13582.788
593.299	13598.952
593.427	13589.817
593.555	13568.346
593.683	13626.942
593.812	13616.154
593.940	13638.048
594.068	13673.077
594.196	13639.087
594.324	13652.067
594.452	13898.048
594.580	13749.308
594.708	13790.721
594.837	13740.462
594.965	13867.798
595.093	13779.308
595.221	13898.769
595.349	13868.375
595.477	13930.856
595.605	13898.269
595.733	13921.837
595.862	13923.567
595.990	13968.413
596.118	14002.067
596.246	14051.548
596.374	13988.769
596.502	14030.202
596.630	13989.288
596.758	13999.673
596.887	14020.308
597.015	13985.894
597.143	14008.154
597.271	14000.750
597.399	14078.337
597.527	14024.087
597.655	14040.471
597.783	14076.798
597.912	14026.385
598.040	14078.615
598.168	14029.510
598.296	14003.404
598.424	14188.029
598.552	13987.202
598.680	14021.837
598.808	14051.529
598.937	13991.490
599.065	13997.990
599.193	14014.212
599.321	14019.865
599.449	13966.010
599.577	13936.240
599.705	13942.692
599.833	13894.731
599.962	13881.692
600.090	13902.923
600.218	13909.010
600.346	13908.462
600.474	13885.952
600.602	13833.173
600.730	13826.365
600.858	13846.625
600.987	13959.413
601.115	13831.788
601.243	13893.885
601.371	13977.279
601.499	13966.346
601.627	13905.327
601.755	13877.769
601.883	13909.519
602.012	13835.202
602.140	13952.327
602.268	13922.673
602.396	14049.404
602.524	13939.221
602.652	14008.817
602.780	14037.577
602.908	14059.413
603.037	14114.673
603.165	14091.577
603.293	14128.942
603.421	14191.750
603.549	14184.875
603.677	14214.471
603.805	14248.288
603.933	14226.817
604.062	14350.163
604.190	14398.683
604.318	14380.365
604.446	14394.038
604.574	14445.423
604.702	14487.683
604.830	14462.981
604.958	14465.077
605.087	14555.740
605.215	14638.625
605.343	14721.846
605.471	14684.769
605.599	14687.962
605.727	14791.952
605.855	14787.798
605.983	14777.010
606.112	14851.692
606.240	14857.096
606.368	14848.269
606.496	14815.452
606.624	14935.702
606.752	14856.442
606.880	14916.913
607.008	14831.135
607.137	14883.260
607.265	14950.510
607.393	14894.837
607.521	14985.048
607.649	14880.827
607.777	14894.644
607.905	14948.327
608.033	14854.202
608.162	14887.529
608.290	14839.952
608.418	14960.500
608.546	14907.971
608.674	14957.846
608.802	14855.096
608.930	14858.163
609.058	14784.548
609.187	14826.663
609.315	14776.346
609.443	14768.337
609.571	14877.962
609.699	14726.673
609.827	14830.000
609.955	14756.269
610.083	14700.337
610.212	14692.779
610.340	14656.308
610.468	14666.404
610.596	14657.740
610.724	14601.067
610.852	14690.740
610.980	14658.250
611.108	14598.375
611.237	14596.510
611.365	14592.087
611.493	14590.750
611.621	14566.106
611.749	14641.067
611.877	14636.462
612.005	14589.587
612.133	14675.067
612.262	14638.538
612.390	14697.365
612.518	14651.442
612.646	14633.135
612.774	14694.048
612.902	14738.529
613.030	14686.885
613.158	14695.029
613.287	14748.048
613.415	14656.337
613.543	14707.731
613.671	14741.529
613.799	14726.692
613.927	14805.163
614.055	14815.971
614.183	14832.885
614.312	14799.808
614.440	14968.135
614.568	14916.990
614.696	14924.087
614.824	14938.260
614.952	15011.433
615.080	14967.481
615.208	15050.404
615.337	15151.875
615.465	15030.202
615.593	15127.490
615.721	15067.096
615.849	15179.260
615.977	15144.048
616.105	15146.500
616.233	15205.010
616.362	15253.769
616.490	15222.740
616.618	15251.663
616.746	15375.769
616.874	15327.510
617.002	15368.413
617.130	15339.481
617.258	15305.817
617.387	15365.385
617.515	15404.990
617.643	15345.356
617.771	15432.240
617.899	15321.663
618.027	15427.817
618.155	15450.769
618.283	15413.423
618.412	15456.394
618.540	15498.519
618.668	15433.971
618.796	15464.712
618.924	15430.346
619.052	15446.471
619.180	15445.769
619.308	15397.317
619.437	15414.202
619.565	15408.942
619.693	15390.385
619.821	15443.760
619.949	15350.404
620.077	15391.750
620.205	15423.654
620.333	15406.231
620.462	15367.067
620.590	15389.942
620.718	15374.769
620.846	15392.885
620.974	15392.654
621.102	15402.500
621.230	15390.760
621.358	15499.154
621.487	15325.971
621.615	15370.615
621.743	15267.279
621.871	15345.808
621.999	15284.442
622.127	15293.442
622.255	15267.154
622.383	15221.202
622.512	15201.346
622.640	15215.788
622.768	15260.240
622.896	15298.394
623.024	15238.087
623.152	15216.933
623.280	15298.058
623.408	15181.635
623.537	15250.615
623.665	15153.490
623.793	15236.587
623.921	15176.548
624.049	15155.971
624.177	15201.933
624.305	15121.096
624.433	15170.923
624.562	15140.269
624.690	15268.269
624.818	15041.683
624.946	15119.990
625.074	15073.471
625.202	15072.500
625.330	15077.865
625.458	15192.712
625.587	15067.327
625.715	15118.308
625.843	15070.529
625.971	15096.981
626.099	15100.144
626.227	15054.202
626.355	14994.029
626.483	15090.010
626.612	15025.385
626.740	15068.337
626.868	15018.673
626.996	15053.481
627.124	15049.452
627.252	15021.577
627.380	15042.490
627.508	14988.058
627.637	15038.962
627.765	15034.279
627.893	15047.394
628.021	15108.971
628.149	15040.692
628.277	15125.240
628.405	15052.567
628.533	15048.394
628.662	15064.356
628.790	15147.231
628.918	15131.231
629.046	15234.471
629.174	15080.625
629.302	15120.702
629.430	15089.163
629.558	15119.500
629.687	15130.990
629.815	15189.385
629.943	15253.971
630.071	15217.010
630.199	15166.817
630.327	15220.279
630.455	15277.423
630.583	15244.971
630.712	15246.558
630.840	15271.048
630.968	15239.154
631.096	15255.192
631.224	15292.221
631.352	15424.760
631.480	15294.952
631.608	15465.269
631.737	15278.731
631.865	15418.115
631.993	15382.000
632.121	15541.933
632.249	15382.154
632.377	15347.894
632.505	15352.163
632.633	15419.288
632.762	15356.750
632.890	15356.548
633.018	15387.990
633.146	15334.135
633.274	15309.865
633.402	15380.231
633.530	15310.519
633.658	15315.673
633.787	15318.548
633.915	15271.663
634.043	15305.856
634.171	15309.058
634.299	15285.192
634.427	15240.615
634.555	15512.442
634.683	15264.250
634.812	15254.106
634.940	15227.337
635.068	15195.038
635.196	15153.837
635.324	15151.673
635.452	15144.279
635.580	15224.269
635.708	15094.260
635.837	15107.183
635.965	15105.385
636.093	15091.212
636.221	15012.375
636.349	14919.885
636.477	14944.337
636.605	14979.394
636.733	14932.202
636.862	14915.058
636.990	14898.837
637.118	14891.279
637.246	14820.471
637.374	14964.067
637.502	14755.644
637.630	14728.894
637.758	14755.433
637.887	14669.731
638.015	14793.644
638.143	14716.702
638.271	14614.346
638.399	14683.346
638.527	14588.462
638.655	14584.173
638.783	14582.894
638.912	14632.404
639.040	14526.308
639.168	14487.692
639.296	14481.702
639.424	14519.587
639.552	14446.500
639.680	14487.192
639.808	14433.606
639.937	14414.788
640.065	14389.106
640.193	14377.058
640.321	14456.702
640.449	14410.452
640.577	14320.500
640.705	14352.404
640.833	14370.798
640.962	14437.356
641.090	14285.865
641.218	14305.038
641.346	14389.606
641.474	14323.163
641.602	14290.990
641.730	14304.529
641.858	14258.510
641.987	14276.519
642.115	14472.529
642.243	14291.337
642.371	14405.538
642.499	14301.577
642.627	14350.875
642.755	14273.462
642.883	14285.683
643.012	14280.865
643.140	14334.462
643.268	14324.519
643.396	14269.567
643.524	14263.394
643.652	14374.385
643.780	14256.221
643.908	14261.000
644.037	14362.433
644.165	14340.240
644.293	14445.067
644.421	14218.385
644.549	14288.808
644.677	14305.942
644.805	14244.567
644.933	14242.500
645.062	14287.538
645.190	14404.519
645.318	14288.365
645.446	14217.452
645.574	14200.990
645.702	14232.942
645.830	14217.308
645.958	14178.692
646.087	14169.000
646.215	14145.298
646.343	14142.212
646.471	14293.894
646.599	14138.231
646.727	14154.808
646.855	14109.769
646.983	14099.115
647.112	14176.038
647.240	14079.106
647.368	14117.529
647.496	14093.558
647.624	14096.683
647.752	14057.471
647.880	14007.769
648.008	14052.913
648.137	14064.654
648.265	14002.644
648.393	14036.221
648.521	13933.519
648.649	14064.365
648.777	13993.029
648.905	13893.221
649.033	13968.260
649.162	13831.029
649.290	13792.913
649.418	13783.144
649.546	13925.846
649.674	13748.010
649.802	13721.856
649.930	13718.856
650.058	13663.288
650.187	13657.413
650.315	13613.356
650.443	13648.433
650.571	13583.817
650.699	13552.865
650.827	13550.202
650.955	13513.106
651.083	13572.740
651.212	13469.029
651.340	13471.865
651.468	13399.173
651.596	13428.692
651.724	13400.231
651.852	13357.529
651.980	13363.885
652.108	13323.577
652.237	13330.788
652.365	13253.404
652.493	13254.490
652.621	13209.125
652.749	13221.000
652.877	13201.750
653.005	13225.106
653.133	13159.192
653.262	13083.096
653.390	13090.933
653.518	13221.135
653.646	13089.875
653.774	13024.962
653.902	13145.413
654.030	13054.663
654.158	12986.933
654.287	13023.154
654.415	12967.375
654.543	13008.529
654.671	12951.404
654.799	12942.519
654.927	12938.981
655.055	12826.510
655.183	12862.125
655.312	12841.048
655.440	12817.779
655.568	12832.769
655.696	12841.029
655.824	12811.048
655.952	12781.452
656.080	12694.913
656.208	12726.183
656.337	12744.827
656.465	12923.750
656.593	12675.000
656.721	12743.567
656.849	12766.788
656.977	12568.394
657.105	12644.548
657.233	12665.298
657.362	12650.471
657.490	12625.163
657.618	12570.077
657.746	12565.827
657.874	12496.596
658.002	12478.144
658.130	12438.029
658.258	12402.990
658.387	12399.173
658.515	12362.567
658.643	12354.971
658.771	12412.308
658.899	12309.894
659.027	12327.154
659.155	12305.490
659.283	12246.885
659.412	12269.673
659.540	12268.923
659.668	12292.875
659.796	12333.356
659.924	12280.952
660.052	12351.096
660.180	12263.481
660.308	12317.048
660.437	12290.712
660.565	12225.096
660.693	12115.317
660.821	12334.644
660.949	12115.702
661.077	12151.760
661.205	12286.904
661.333	12141.538
661.462	12102.587
661.590	12220.221
661.718	12102.394
661.846	12103.010
661.974	12041.106
662.102	12044.692
662.230	12078.981
662.358	11962.308
662.487	12027.692
662.615	12018.394
662.743	12011.317
662.871	11974.144
662.999	11900.404
663.127	11909.625
663.255	11912.942
663.383	12008.760
663.512	11840.500
663.640	11868.712
663.768	11914.942
663.896	11847.433
664.024	11853.615
664.152	11801.106
664.280	11841.423
664.408	11815.317
664.537	11811.721
664.665	11786.615
664.793	11793.404
664.921	11767.298
665.049	11810.038
665.177	11730.865
665.305	11774.490
665.433	11727.856
665.562	11880.510
665.690	11743.817
665.818	11889.817
665.946	11640.481
666.074	11689.481
666.202	11643.933
666.330	11676.240
666.458	12023.240
666.587	11630.519
666.715	11609.740
666.843	11569.856
666.971	11599.029
667.099	11629.096
667.227	11648.048
667.355	11625.192
667.483	11509.471
667.612	11578.250
667.740	11536.673
667.868	11529.260
667.996	11510.154
668.124	11554.596
668.252	11624.663
668.380	11469.837
668.508	11505.750
668.637	11412.606
668.765	11499.288
668.893	11437.260
669.021	11377.779
669.149	11475.115
669.277	11362.538
669.405	11462.692
669.533	11439.731
669.662	11349.856
669.790	11358.760
669.918	11350.462
670.046	11467.654
670.174	11257.096
670.302	11272.183
670.430	11223.452
670.558	11267.538
670.687	11381.683
670.815	11199.462
670.943	11226.625
671.071	11110.846
671.199	11113.125
671.327	11101.625
671.455	11123.875
671.583	11097.192
671.712	11034.798
671.840	11128.606
671.968	11213.269
672.096	11148.971
672.224	10979.942
672.352	10994.385
672.480	10936.067
672.608	10931.212
672.737	10899.548
672.865	10834.394
672.993	10845.779
673.121	10851.240
673.249	10803.760
673.377	10753.933
673.505	10756.221
673.633	10798.558
673.762	10705.490
673.890	10730.635
674.018	10730.327
674.146	10663.712
674.274	10663.288
674.402	10709.125
674.530	10646.702
674.658	10549.740
674.787	10580.173
674.915	10690.308
675.043	10554.865
675.171	10542.558
675.299	10470.702
675.427	10438.317
675.555	10446.087
675.683	10477.058
675.812	10415.433
675.940	10395.173
676.068	10348.433
676.196	10421.317
676.324	10313.288
676.452	10252.663
676.580	10227.385
676.708	10252.327
676.837	10243.462
676.965	10315.106
677.093	10351.096
677.221	10197.817
677.349	10130.106
677.477	10199.952
677.605	10060.933
677.733	10084.096
677.862	10073.894
677.990	10084.731
678.118	10082.337
678.246	10040.654
678.374	10088.019
678.502	9991.952
678.630	9948.981
678.758	9956.875
678.887	10074.067
679.015	9867.346
679.143	9817.962
679.271	9844.231
679.399	9847.375
679.527	9843.702
679.655	9905.644
679.783	9782.596
679.912	9768.798
680.040	9946.135
680.168	9735.269
680.296	9759.135
680.424	9719.558
680.552	9666.365
680.680	9662.346
680.808	9619.894
680.937	9606.452
681.065	9670.606
681.193	9581.365
681.321	9558.779
681.449	9590.875
681.577	9570.365
681.705	9543.596
681.833	9567.413
681.962	9537.365
682.090	9487.635
682.218	9502.038
682.346	9511.654
682.474	9461.067
682.602	9443.510
682.730	9519.394
682.858	9432.885
682.987	9427.173
683.115	9448.615
683.243	9383.798
683.371	9413.308
683.499	9364.490
683.627	9390.981
683.755	9361.683
683.883	9368.000
684.012	9361.981
684.140	9314.606
684.268	9325.269
684.396	9374.856
684.524	9322.577
684.652	9312.144
684.780	9308.413
684.908	9309.240
685.037	9305.144
685.165	9294.538
685.293	9330.462
685.421	9268.913
685.549	9286.740
685.677	9239.538
685.805	9247.500
685.933	9207.481
686.062	9233.625
686.190	9173.115
686.318	9193.615
686.446	9152.096
686.574	9120.385
686.702	9198.673
686.830	9085.452
686.958	9177.846
687.087	9077.394
687.215	9110.183
687.343	9090.865
687.471	9258.769
687.599	9048.250
687.727	9020.827
687.855	9021.413
687.983	8952.019
688.112	9050.481
688.240	8994.519
688.368	8996.615
688.496	8976.750
688.624	8942.433
688.752	9071.288
688.880	8929.413
689.008	8897.856
689.137	8912.952
689.265	8828.683
689.393	8856.077
689.521	8847.913
689.649	8933.558
689.777	8850.029
689.905	8930.846
690.033	8759.692
690.162	8784.837
690.290	8811.000
690.418	8735.038
690.546	8788.048
690.674	8781.644
690.802	8786.663
690.930	8713.904
691.058	8714.875
691.187	8661.058
691.315	8631.702
691.443	8627.971
691.571	8628.904
691.699	8604.471
691.827	8567.673
691.955	8573.096
692.083	8537.240
692.212	8528.885
692.340	8542.404
692.468	8560.413
692.596	8515.779
692.724	8436.548
692.852	8493.202
692.980	8498.500
693.108	8514.702
693.237	8396.673
693.365	8378.019
693.493	8363.442
693.621	8356.490
693.749	8281.000
693.877	8373.981
694.005	8277.788
694.133	8242.702
694.262	8305.548
694.390	8206.433
694.518	8216.702
694.646	8193.019
694.774	8139.567
694.902	8110.548
695.030	8150.433
695.158	8098.981
695.287	8083.327
695.415	8091.942
695.543	8062.423
695.671	8020.481
695.799	8101.260
695.927	7998.760
696.055	8001.625
696.183	7940.615
696.312	8100.587
696.440	7946.798
696.568	7941.240
696.696	7819.173
696.824	7784.615
696.952	7794.981
697.080	7826.346
697.208	7733.481
697.337	7752.115
697.465	7702.077
697.593	7666.913
697.721	7784.779
697.849	7672.125
697.977	7680.269
698.105	7723.385
698.233	7647.692
698.362	7569.490
698.490	7697.452
698.618	7525.673
698.746	7491.394
698.874	7575.913
699.002	7517.173
699.130	7525.913
699.258	7480.558
699.387	7428.615
699.515	7472.221
699.643	7497.365
699.771	7527.962
699.899	7365.202
700.027	7354.490
700.155	7415.192
700.283	7254.529
700.412	7274.346
700.540	7321.923
700.668	7337.260
700.796	7233.750
700.924	7259.913
701.052	7270.356
701.180	7250.462
701.308	7129.308
701.437	7124.625
701.565	7110.750
701.693	7158.981
701.821	7304.577
701.949	7054.327
702.077	7080.202
702.205	7114.471
702.333	7016.298
702.462	6976.990
702.590	7012.413
702.718	6936.192
702.846	7100.154
702.974	6910.471
703.102	6888.683
703.230	6902.654
703.358	6863.221
703.487	6831.837
703.615	6819.192
703.743	6769.183
703.871	6745.423
703.999	6746.375
704.127	6699.135
704.255	6686.962
704.383	6701.962
704.512	6729.635
704.640	6710.058
704.768	6737.163
704.896	6592.490
705.024	6528.942
705.152	6574.413
705.280	6609.923
705.408	6507.750
705.537	6442.577
705.665	6486.087
705.793	6424.885
705.921	6428.442
706.049	6377.635
706.177	6404.019
706.305	6316.231
706.433	6375.096
706.562	6348.846
706.690	6351.231
706.818	6320.500
706.946	6267.029
707.074	6213.317
707.202	6180.606
707.330	6198.962
707.458	6161.317
707.587	6128.981
707.715	6177.538
707.843	6160.846
707.971	6141.750
708.099	6049.288
708.227	6041.279
708.355	6034.942
708.483	6013.077
708.612	6030.260
708.740	5972.288
708.868	5976.231
708.996	6011.385
709.124	6004.183
709.252	5943.683
709.380	5945.760
709.508	5886.212
709.637	5891.846
709.765	5854.769
709.893	5887.413
710.021	5807.625
710.149	5914.538
710.277	5772.163
710.405	5787.471
710.533	5747.962
710.662	5740.125
710.790	5835.327
710.918	5697.106
711.046	5726.596
711.174	5684.635
711.302	5703.221
711.430	5663.865
711.558	5653.721
711.687	5645.510
711.815	5592.038
711.943	5595.346
712.071	5557.538
712.199	5582.202
712.327	5622.077
712.455	5505.385
712.583	5657.942
712.712	5515.606
712.840	5544.183
712.968	5467.587
713.096	5469.808
713.224	5428.952
713.352	5443.019
713.480	5370.606
713.608	5368.087
713.737	5319.240
713.865	5386.269
713.993	5338.587
714.121	5334.721
714.249	5282.413
714.377	5268.077
714.505	5248.538
714.633	5288.240
714.762	5251.413
714.890	5225.596
715.018	5214.519
715.146	5226.346
715.274	5154.269
715.402	5147.221
715.530	5130.913
715.658	5185.817
715.787	5107.192
715.915	5190.385
716.043	5085.798
716.171	5185.740
716.299	5028.712
716.427	5076.587
716.555	5034.115
716.683	5006.856
716.812	4990.490
716.940	4972.548
717.068	4934.115
717.196	5055.019
717.324	4943.308
717.452	4933.490
717.580	4963.721
717.708	4868.644
717.837	4884.875
717.965	4902.663
718.093	4840.240
718.221	4875.173
718.349	4903.817
718.477	4793.019
718.605	4872.163
718.733	4779.058
718.862	4788.798
718.990	4743.865
719.118	4781.962
719.246	4690.481
719.374	4665.913
719.502	4732.356
719.630	4783.808
719.758	4640.144
719.887	4605.644
720.015	4629.327
720.143	4657.077
720.271	4548.644
720.399	4616.115
720.527	4550.337
720.655	4604.221
720.783	4532.952
720.912	4481.894
721.040	4494.250
721.168	4487.394
721.296	4414.644
721.424	4421.885
721.552	4397.106
721.680	4452.087
721.808	4399.731
721.937	4372.548
722.065	4392.904
722.193	4349.288
722.321	4340.058
722.449	4303.115
722.577	4260.375
722.705	4259.606
722.833	4248.221
722.962	4251.385
723.090	4212.144
723.218	4169.913
723.346	4214.144
723.474	4151.038
723.602	4099.837
723.730	4104.144
723.858	4080.317
723.987	4093.231
724.115	4074.144
724.243	4080.144
724.371	4009.115
724.499	4007.558
724.627	4005.125
724.755	3979.019
724.883	4054.625
725.012	4077.721
725.140	3961.115
725.268	3893.519
725.396	3967.587
725.524	4009.808
725.652	3867.981
725.780	3932.413
725.908	3827.933
726.037	3837.288
726.165	3839.788
726.293	3766.125
726.421	3774.885
726.549	3793.500
726.677	3762.808
726.805	3702.260
726.933	3734.702
727.062	3694.510
727.190	3653.048
727.318	3645.154
727.446	3649.231
727.574	3595.433
727.702	3588.212
727.830	3615.288
727.958	3591.221
728.087	3633.154
728.215	3641.548
728.343	3536.692
728.471	3531.192
728.599	3626.894
728.727	3490.010
728.855	3490.462
728.983	3450.529
729.112	3450.567
729.240	3447.510
729.368	3416.721
729.496	3433.750
729.624	3408.798
729.752	3361.288
729.880	3359.913
730.008	3329.760
730.137	3330.279
730.265	3331.452
730.393	3446.000
730.521	3423.904
730.649	3268.385
730.777	3224.865
730.905	3247.952
731.033	3204.298
731.162	3303.548
731.290	3272.125
731.418	3201.173
731.546	3170.423
731.674	3187.106
731.802	3128.202
731.930	3209.846
732.058	3229.077
732.187	3146.731
732.315	3143.808
732.443	3203.115
732.571	3125.298
732.699	3079.933
732.827	3092.500
732.955	3050.510
733.083	3028.183
733.212	3043.067
733.340	2985.048
733.468	3002.769
733.596	2993.837
733.724	2981.288
733.852	2977.567
733.980	2962.038
734.108	3084.875
734.237	2946.615
734.365	2920.125
734.493	2929.606
734.621	2902.625
734.749	2874.135
734.877	2908.856
735.005	2885.317
735.133	2849.288
735.262	2936.913
735.390	2831.183
735.518	2829.894
735.646	2887.317
735.774	2864.990
735.902	2878.462
736.030	2788.923
736.158	2772.779
736.287	2786.115
736.415	2765.029
736.543	2754.856
736.671	2730.558
736.799	2761.394
736.927	2730.163
737.055	2797.058
737.183	2694.375
737.312	2687.173
737.440	2680.894
737.568	2749.952
737.696	2702.481
737.824	2652.635
737.952	2889.288
738.080	2609.788
738.208	2668.221
738.337	2617.779
738.465	2629.798
738.593	2592.875
738.721	2591.135
738.849	2633.567
738.977	2560.288
739.105	2549.433
739.233	2580.337
739.362	2517.096
739.490	2510.423
739.618	2557.077
739.746	2544.933
739.874	2463.702
740.002	2498.567
740.130	2479.490
740.258	2432.750
740.387	2509.798
740.515	2450.788
740.643	2458.587
740.771	2522.510
740.899	2404.798
741.027	2376.692
741.155	2391.558
741.283	2371.029
741.412	2477.981
741.540	2401.837
741.668	2390.798
741.796	2434.173
741.924	2350.385
742.052	2443.183
742.180	2354.356
742.308	2320.702
742.437	2341.942
742.565	2328.625
742.693	2385.519
742.821	2311.885
742.949	2278.125
743.077	2294.644
743.205	2264.337
743.333	2273.837
743.462	2287.827
743.590	2253.558
743.718	2275.413
743.846	2249.865
743.974	2276.288
744.102	2243.183
744.230	2241.471
744.358	2229.337
744.487	2222.596
744.615	2202.740
744.743	2195.981
744.871	2203.385
744.999	2196.077
745.127	2188.808
745.255	2153.269
745.383	2159.346
745.512	2132.288
745.640	2127.077
745.768	2127.279
745.896	2121.375
746.024	2117.317
746.152	2106.135
746.280	2110.183
746.408	2100.779
746.537	2088.385
746.665	2093.567
746.793	2058.481
746.921	2051.269
747.049	2064.452
747.177	2012.269
747.305	2039.952
747.433	2026.577
747.562	2013.913
747.690	2003.365
747.818	1987.808
747.946	1983.240
748.074	1966.769
748.202	1983.067
748.330	1958.240
748.458	1941.808
748.587	1945.702
748.715	1942.346
748.843	1920.442
748.971	1919.442
749.099	1924.962
749.227	1915.240
749.355	1920.567
749.483	1862.192
749.612	1902.029
749.740	1875.856
749.868	1861.385
749.996	1843.721
750.124	1874.808
750.252	1836.452
750.380	1833.163
750.508	1834.423
750.637	1804.894
750.765	1808.596
750.893	1794.106
751.021	1788.192
751.149	1794.558
751.277	1768.375
751.405	1747.231
751.533	1763.644
751.662	1741.125
751.790	1727.817
751.918	1721.327
752.046	1730.490
752.174	1706.923
752.302	1684.788
752.430	1692.538
752.558	1681.923
752.687	1683.481
752.815	1669.587
752.943	1663.971
753.071	1647.952
753.199	1660.990
753.327	1661.615
753.455	1624.779
753.583	1615.337
753.712	1595.548
753.840	1614.577
753.968	1590.673
754.096	1600.192
754.224	1592.481
754.352	1563.038
754.480	1592.173
754.608	1554.962
754.737	1561.865
754.865	1558.375
754.993	1537.990
755.121	1539.712
755.249	1504.548
755.377	1496.952
755.505	1511.933
755.633	1497.423
755.762	1495.356
755.890	1497.596
756.018	1480.913
756.146	1470.106
756.274	1455.567
756.402	1449.096
756.530	1464.740
756.658	1452.423
756.787	1412.894
756.915	1415.990
757.043	1411.808
757.171	1411.173
757.299	1411.808
757.427	1391.000
757.555	1388.067
757.683	1386.288
757.812	1379.721
757.940	1358.010
758.068	1358.769
758.196	1360.250
758.324	1340.702
758.452	1344.096
758.580	1351.644
758.708	1329.231
758.837	1342.000
758.965	1332.490
759.093	1321.490
759.221	1287.933
759.349	1281.846
759.477	1282.163
759.605	1262.923
759.733	1279.375
759.862	1267.404
759.990	1265.058
760.118	1251.135
760.246	1254.625
760.374	1252.077
760.502	1245.087
760.630	1224.423
760.758	1212.817
760.887	1211.173
761.015	1213.279
761.143	1209.644
761.271	1192.962
761.399	1188.933
761.527	1198.808
761.655	1192.971
761.783	1170.731
761.912	1168.096
762.040	1166.462
762.168	1154.308
762.296	1145.048
762.424	1152.481
762.552	1147.298
762.680	1122.125
762.808	1139.183
762.937	1128.490
763.065	1113.721
763.193	1099.183
763.321	1096.952
763.449	1082.567
763.577	1088.587
763.705	1098.702
763.833	1087.471
763.962	1069.067
764.090	1050.173
764.218	1051.394
764.346	1054.692
764.474	1053.019
764.602	1047.183
764.730	1048.317
764.858	1032.894
764.987	1037.538
765.115	1031.375
765.243	1003.952
765.371	1019.135
765.499	1009.231
765.627	1006.952
765.755	999.962
765.883	997.683
766.012	990.375
766.140	983.260
766.268	977.135
766.396	979.163
766.524	975.260
766.652	956.231
766.780	962.654
766.908	965.510
767.037	959.558
767.165	945.962
767.293	948.125
767.421	944.173
767.549	931.298
767.677	962.500
767.805	933.058
767.933	931.962
768.062	921.500
768.190	908.308
768.318	915.673
768.446	907.923
768.574	899.298
768.702	906.163
768.830	891.260
768.958	882.712
769.087	890.692
769.215	883.048
769.343	883.817
769.471	897.433
769.599	867.712
769.727	868.596
769.855	857.962
769.983	893.587
770.112	863.154
770.240	852.490
770.368	846.567
770.496	847.154
770.624	848.087
770.752	828.221
770.880	846.500
771.008	823.202
771.137	822.769
771.265	814.192
771.393	813.837
771.521	817.654
771.649	821.135
771.777	842.010
771.905	857.144
772.033	830.856
772.162	792.750
772.290	797.683
772.418	802.808
772.546	783.144
772.674	794.038
772.802	777.885
772.930	780.154
773.058	774.490
773.187	774.837
773.315	762.981
773.443	764.269
773.571	766.250
773.699	765.750
773.827	765.394
773.955	777.385
774.083	757.327
774.212	746.904
774.340	745.356
774.468	736.096
774.596	739.567
774.724	741.942
774.852	739.404
774.980	729.125
775.108	728.029
775.237	719.481
775.365	716.413
775.493	720.240
775.621	712.375
775.749	713.106
775.877	718.173
776.005	704.212
776.133	697.577
776.262	700.663
776.390	695.163
776.518	680.125
776.646	695.596
776.774	687.808
776.902	682.096
777.030	677.971
777.158	675.798
777.287	685.490
777.415	674.808
777.543	668.885
777.671	668.923
777.799	665.462
777.927	664.567
778.055	666.067
778.183	650.558
778.312	652.846
778.440	647.856
778.568	673.692
778.696	658.183
778.824	659.106
778.952	655.683
779.080	643.596
779.208	639.106
779.337	641.538
779.465	642.269
779.593	628.942
779.721	632.183
779.849	622.692
779.977	623.981
780.105	623.904
780.233	621.019
780.362	615.587
780.490	608.750
780.618	614.212
780.746	607.125
780.874	607.375
781.002	606.394
781.130	599.933
781.258	589.837
781.387	600.317
781.515	591.788
781.643	578.231
781.771	589.933
781.899	593.952
782.027	582.385
782.155	581.365
782.283	575.538
782.412	583.529
782.540	589.019
782.668	575.990
782.796	564.875
782.924	582.913
783.052	576.894
783.180	567.885
783.308	567.856
783.437	559.317
783.565	566.077
783.693	556.096
783.821	557.192
783.949	550.500
784.077	547.635
784.205	551.106
784.333	542.712
784.462	550.673
784.590	544.212
784.718	528.510
784.846	536.173
784.974	545.875
785.102	530.683
785.230	531.173
785.358	531.452
785.487	520.625
785.615	512.654
785.743	520.010
785.871	524.067
785.999	525.337
786.127	524.404
786.255	512.279
786.383	506.625
786.512	515.413
786.640	512.692
786.768	495.183
786.896	505.558
787.024	487.808
787.152	495.817
787.280	515.375
787.408	493.029
787.537	497.644
787.665	498.029
787.793	483.740
787.921	485.471
788.049	481.615
788.177	483.481
788.305	481.096
788.433	481.423
788.562	478.558
788.690	474.808
788.818	482.683
788.946	469.144
789.074	461.548
789.202	467.548
789.330	460.221
789.458	467.067
789.587	459.606
789.715	468.096
789.843	462.538
789.971	454.510
790.099	449.212
790.227	449.058
790.355	456.913
790.483	450.673
790.612	449.798
790.740	453.375
790.868	443.644
790.996	462.423
791.124	457.567
791.252	443.577
791.380	433.567
791.508	443.625
791.637	441.269
791.765	427.913
791.893	437.144
792.021	442.385
792.149	431.683
792.277	434.192
792.405	420.750
792.533	431.115
792.662	416.923
792.790	425.192
792.918	426.115
793.046	416.827
793.174	417.250
793.302	414.192
793.430	413.712
793.558	426.808
793.687	417.298
793.815	406.865
793.943	422.212
794.071	403.577
794.199	404.413
794.327	405.250
794.455	413.375
794.583	404.615
794.712	404.587
794.840	397.221
794.968	400.596
795.096	407.067
795.224	387.779
795.352	427.519
795.480	378.433
795.608	380.481
795.737	384.933
795.865	383.202
795.993	388.500
796.121	382.163
796.249	381.298
796.377	381.125
796.505	376.433
796.633	379.038
796.762	368.519
796.890	366.221
797.018	377.760
797.146	378.875
797.274	374.385
797.402	366.471
797.530	364.510
797.658	362.615
797.787	379.413
797.915	374.510
798.043	363.913
798.171	370.144
798.299	354.288
798.427	365.038
798.555	369.529
798.683	354.798
798.812	383.067
798.940	397.288
799.068	385.587
799.196	360.202
799.324	362.875
799.452	344.490
799.580	343.548
799.708	348.567
799.837	345.663
799.965	340.019
800.093	338.500
800.221	338.087
800.349	339.567
800.477	333.510
800.605	333.846
800.733	344.846
800.862	332.817
800.990	331.375
801.118	333.942
801.246	329.962
801.374	337.163
801.502	326.462
801.630	329.981
801.758	324.846
801.887	322.625
802.015	325.442
802.143	321.000
802.271	321.452
802.399	319.433
802.527	314.115
802.655	320.942
802.783	313.548
802.912	312.192
803.040	311.337
803.168	308.240
803.296	319.337
803.424	307.971
803.552	311.788
803.680	314.625
803.808	311.048
803.937	307.231
804.065	309.962
804.193	305.490
804.321	322.462
804.449	315.221
804.577	308.625
804.705	323.750
804.833	302.375
804.962	299.721
805.090	302.904
805.218	295.067
805.346	295.442
805.474	308.346
805.602	305.337
805.730	309.837
805.858	288.721
805.987	293.654
806.115	295.413
806.243	298.952
806.371	293.385
806.499	293.923
806.627	282.096
806.755	284.779
806.883	291.346
807.012	285.673
807.140	291.404
807.268	277.827
807.396	284.183
807.524	281.096
807.652	288.923
807.780	284.644
807.908	284.913
808.037	295.010
808.165	290.212
808.293	274.625
808.421	273.817
808.549	276.923
808.677	276.231
808.805	289.596
808.933	278.615
809.062	275.654
809.190	286.433
809.318	282.010
809.446	268.394
809.574	284.404
809.702	264.231
809.830	264.635
809.958	277.317
810.087	273.125
810.215	267.385
810.343	277.404
810.471	273.038
810.599	262.317
810.727	271.356
810.855	260.673
810.983	268.202
811.112	263.827
811.240	262.337
811.368	261.865
811.496	267.385
811.624	260.760
811.752	266.356
811.880	273.538
812.008	265.538
812.137	273.413
812.265	258.471
812.393	261.221
812.521	250.654
812.649	262.769
812.777	251.000
812.905	260.635
813.033	266.452
813.162	251.923
813.290	248.942
813.418	254.442
813.546	255.240
813.674	247.462
813.802	247.327
813.930	251.779
814.058	244.221
814.187	248.731
814.315	248.471
814.443	246.260
814.571	249.894
814.699	241.183
814.827	243.500
814.955	249.394
815.083	244.375
815.212	245.356
815.340	235.375
815.468	252.173
815.596	240.058
815.724	242.385
815.852	248.500
815.980	242.135
816.108	241.538
816.237	246.673
816.365	253.510
816.493	239.231
816.621	249.779
816.749	229.904
816.877	300.933
817.005	251.423
817.133	240.702
817.262	237.202
817.390	231.577
817.518	240.558
817.646	228.904
817.774	227.635
817.902	225.173
818.030	228.712
818.158	239.769
818.287	232.683
818.415	228.913
818.543	229.240
818.671	227.019
818.799	222.356
818.927	223.577
819.055	251.394
819.183	231.048
819.312	247.490
819.440	229.212
819.568	220.808
819.696	224.462
819.824	226.548
819.952	225.538
820.080	223.625
820.208	224.250
820.337	225.192
820.465	221.942
820.593	221.625
820.721	227.183
820.849	220.596
820.977	222.625
821.105	224.365
821.233	212.558
821.362	223.587
821.490	214.423
821.618	225.846
821.746	229.788
821.874	217.058
822.002	212.010
822.130	212.558
822.258	224.337
822.387	214.779
822.515	220.144
822.643	216.279
822.771	216.231
822.899	219.212
823.027	205.788
823.155	216.250
823.283	226.885
823.412	223.077
823.540	209.000
823.668	208.048
823.796	209.327
823.924	210.000
824.052	211.010
824.180	215.769
824.308	210.625
824.437	221.894
824.565	211.837
824.693	199.394
824.821	205.962
824.949	210.356
825.077	207.663
825.205	204.442
825.333	203.952
825.462	214.317
825.590	203.962
825.718	204.221
825.846	203.913
825.974	207.413
826.102	200.856
826.230	208.779
826.358	212.606
826.487	203.981
826.615	202.192
826.743	196.644
826.871	206.058
826.999	198.154
827.127	206.346
827.255	200.615
827.383	199.106
827.512	196.375
827.640	204.846
827.768	218.019
827.896	194.115
828.024	204.760
828.152	197.221
828.280	200.587
828.408	196.846
828.537	195.740
828.665	194.788
828.793	198.356
828.921	198.779
829.049	198.942
829.177	197.625
829.305	193.269
829.433	195.106
829.562	190.769
829.690	197.279
829.818	203.019
829.946	191.154
830.074	194.769
830.202	187.913
830.330	197.625
830.458	187.962
830.587	199.529
830.715	186.462
830.843	189.471
830.971	198.375
831.099	194.337
831.227	214.827
831.355	186.154
831.483	195.183
831.612	192.375
831.740	188.654
831.868	190.846
831.996	196.856
832.124	192.202
832.252	196.625
832.380	190.596
832.508	190.452
832.637	188.663
832.765	194.683
832.893	189.644
833.021	187.125
833.149	183.212
833.277	192.337
833.405	191.577
833.533	184.538
833.662	191.154
833.790	182.567
833.918	191.231
834.046	185.260
834.174	182.712
834.302	189.663
834.430	182.904
834.558	183.808
834.687	189.538
834.815	184.740
834.943	184.144
835.071	191.173
835.199	189.288
835.327	185.125
835.455	193.769
835.583	179.875
835.712	183.423
835.840	186.990
835.968	178.750
836.096	191.019
836.224	179.106
836.352	186.510
836.480	182.288
836.608	178.019
836.737	188.317
836.865	180.000
836.993	185.731
837.121	191.481
837.249	189.519
837.377	177.779
837.505	175.163
837.633	181.125
837.762	183.038
837.890	185.625
838.018	182.173
838.146	176.356
838.274	179.404
838.402	178.731
838.530	193.106
838.658	184.519
838.787	192.615
838.915	173.365
839.043	185.702
839.171	178.067
839.299	184.240
839.427	195.644
839.555	183.298
839.683	174.856
839.812	179.769
839.940	175.029
840.068	182.981
840.196	204.740
840.324	195.529
840.452	184.500
840.580	178.769
840.708	169.990
840.837	179.740
840.965	178.192
841.093	177.010
841.221	177.212
841.349	172.981
841.477	169.606
841.605	174.837
841.733	176.433
841.862	179.942
841.990	175.154
842.118	173.106
842.246	177.115
842.374	168.596
842.502	183.385
842.630	176.587
842.758	171.885
842.887	181.462
843.015	189.144
843.143	169.317
843.271	176.837
843.399	175.875
843.527	176.404
843.655	172.596
843.783	172.308
843.912	170.067
844.040	167.731
844.168	173.596
844.296	183.394
844.424	178.865
844.552	177.077
844.680	173.260
844.808	176.692
844.937	172.577
845.065	171.548
845.193	189.096
845.321	176.433
845.449	178.904
845.577	175.048
845.705	171.423
845.833	171.096
845.962	180.635
846.090	173.231
846.218	183.048
846.346	178.490
846.474	174.173
846.602	167.375
846.730	171.779
846.858	171.000
846.987	170.452
847.115	179.135
847.243	180.038
847.371	165.183
847.499	168.990
847.627	171.990
847.755	168.558
847.883	178.163
848.012	177.096
848.140	162.212
848.268	168.048
848.396	171.115
848.524	178.875
848.652	166.750
848.780	164.471
848.908	172.529
849.037	173.625
849.165	168.135
849.293	177.163
849.421	169.038
849.549	171.673
849.677	166.308
849.805	177.394
849.933	167.221
850.062	174.587
850.190	169.433
850.318	164.913
850.446	172.721
850.574	167.452
850.702	168.096
850.830	161.135
850.958	167.490
851.087	169.692
851.215	163.933
851.343	168.308
851.471	172.115
851.599	174.712
851.727	179.779
851.855	169.942
851.983	173.163
852.112	166.404
852.240	175.865
852.368	182.817
852.496	169.933
852.624	169.894
852.752	175.702
852.880	174.394
853.008	169.837
853.137	171.692
853.265	169.529
853.393	167.192
853.521	162.135
853.649	172.442
853.777	165.337
853.905	165.269
854.033	164.106
854.162	162.231
854.290	167.404
854.418	183.394
854.546	196.231
854.674	183.923
854.802	170.952
854.930	163.683
855.058	172.260
855.187	163.481
855.315	195.346
855.443	166.788
855.571	164.692
855.699	173.808
855.827	159.144
855.955	164.029
856.083	167.192
856.212	164.596
856.340	167.644
856.468	169.615
856.596	165.971
856.724	171.019
856.852	180.837
856.980	164.192
857.108	159.163
857.237	161.135
857.365	175.577
857.493	170.788
857.621	166.375
857.749	162.577
857.877	163.769
858.005	161.327
858.133	167.115
858.262	161.913
858.390	162.135
858.518	161.000
858.646	169.875
858.774	157.798
858.902	163.558
859.030	168.087
859.158	167.019
859.287	167.000
859.415	166.663
859.543	166.346
859.671	167.423
859.799	175.260
859.927	162.163
860.055	160.913
860.183	153.644
860.312	162.654
860.440	163.212
860.568	156.260
860.696	170.577
860.824	171.808
860.952	161.885
861.080	163.221
861.208	167.404
861.337	165.779
861.465	173.558
861.593	168.250
861.721	172.558
861.849	173.038
861.977	164.192
862.105	165.558
862.233	163.740
862.362	161.731
862.490	161.635
862.618	165.490
862.746	163.433
862.874	166.567
863.002	165.942
863.130	166.519
863.258	168.298
863.387	165.904
863.515	166.048
863.643	171.837
863.771	164.606
863.899	165.067
864.027	168.721
864.155	187.596
864.283	159.875
864.412	158.808
864.540	166.587
864.668	157.894
864.796	163.433
864.924	160.990
865.052	160.144
865.180	178.846
865.308	164.750
865.437	167.337
865.565	157.019
865.693	161.644
865.821	161.115
865.949	181.519
866.077	168.115
866.205	165.250
866.333	167.375
866.462	157.250
866.590	166.942
866.718	164.875
866.846	160.038
866.974	165.038
867.102	158.788
867.230	166.663
867.358	163.221
867.487	170.087
867.615	173.115
867.743	159.885
867.871	173.442
867.999	160.981
868.127	173.308
868.255	176.827
868.383	155.596
868.512	165.250
868.640	165.365
868.768	158.933
868.896	171.663
869.024	161.298
869.152	160.135
869.280	160.212
869.408	158.038
869.537	161.596
869.665	158.558
869.793	162.375
869.921	164.779
870.049	156.923
870.177	162.721
870.305	158.375
870.433	162.346
870.562	164.615
870.690	161.558
870.818	165.923
870.946	157.644
871.074	155.125
871.202	159.923
871.330	155.981
871.458	164.615
871.587	162.423
871.715	163.990
871.843	165.702
871.971	168.606
872.099	155.250
872.227	160.356
872.355	159.856
872.483	156.606
872.612	166.279
872.740	161.413
872.868	161.971
872.996	161.779
873.124	169.058
873.252	162.673
873.380	156.712
873.508	169.375
873.637	167.837
873.765	156.163
873.893	159.606
874.021	160.558
874.149	159.740
874.277	162.096
874.405	163.894
874.533	167.279
874.662	159.990
874.790	166.885
874.918	156.731
875.046	164.577
875.174	160.173
875.302	161.423
875.430	157.587
875.558	164.529
875.687	164.990
875.815	160.375
875.943	166.788
876.071	162.702
876.199	165.404
876.327	163.721
876.455	161.865
876.583	159.365
876.712	168.846
876.840	163.587
876.968	162.663
877.096	166.529
877.224	161.452
877.352	156.635
877.480	160.577
877.608	171.981
877.737	163.904
877.865	158.250
877.993	162.038
878.121	168.163
878.249	160.606
878.377	156.087
878.505	165.923
878.633	165.183
878.762	156.365
878.890	160.279
879.018	167.587
879.146	161.837
879.274	188.798
879.402	164.615
879.530	159.654
879.658	163.346
879.787	163.519
879.915	158.702
880.043	159.135
880.171	193.692
880.299	163.308
880.427	167.173
880.555	158.106
880.683	165.702
880.812	164.269
880.940	162.115
881.068	168.413
881.196	161.538
881.324	159.231
881.452	157.462
881.580	166.837
881.708	168.663
881.837	165.327
881.965	160.683
882.093	154.760
882.221	155.529
882.349	156.837
882.477	163.712
882.605	163.010
882.733	168.183
882.862	157.317
882.990	171.971
883.118	168.038
883.246	171.163
883.374	159.308
883.502	169.077
883.630	168.019
883.758	163.183
883.887	168.192
884.015	162.212
884.143	168.692
884.271	161.404
884.399	155.567
884.527	166.337
884.655	157.971
884.783	164.394
884.912	181.663
885.040	165.981
885.168	157.577
885.296	172.404
885.424	161.000
885.552	162.750
885.680	175.558
885.808	168.135
885.937	170.548
886.065	172.250
886.193	163.173
886.321	163.250
886.449	161.279
886.577	160.288
886.705	171.029
886.833	157.279
886.962	163.654
887.090	162.490
887.218	161.221
887.346	161.913
887.474	160.827
887.602	161.096
887.730	155.308
887.858	157.375
887.987	161.058
888.115	165.058
888.243	163.731
888.371	175.913
888.499	161.231
888.627	156.327
888.755	168.462
888.883	159.894
889.012	166.538
889.140	161.625
889.268	164.990
889.396	157.885
889.524	166.712
889.652	155.942
889.780	158.952
889.908	161.712
890.037	171.567
890.165	159.471
890.293	164.029
890.421	165.510
890.549	154.413
890.677	157.490
890.805	162.913
890.933	157.308
891.062	160.058
891.190	166.500
891.318	159.865
891.446	161.567
891.574	154.644
891.702	160.029
891.830	161.154
891.958	172.769
892.087	167.327
892.215	163.846
892.343	164.933
892.471	168.173
892.599	155.548
892.727	165.058
892.855	181.538
892.983	156.567
893.112	160.192
893.240	168.663
893.368	158.865
893.496	169.712
893.624	164.913
893.752	185.067
893.880	166.808
894.008	164.981
894.137	158.750
894.265	168.163
894.393	161.558
894.521	167.452
894.649	161.702
894.777	156.019
894.905	199.538
895.033	161.135
895.162	160.038
895.290	169.250
895.418	165.077
895.546	195.356
895.674	165.510
895.802	203.288
895.930	164.433
896.058	158.279
896.187	164.442
896.315	161.510
896.443	168.615
896.571	185.154
896.699	160.779
896.827	164.692
896.955	159.712
897.083	167.087
897.212	163.375
897.340	159.538
897.468	163.279
897.596	161.904
897.724	158.885
897.852	159.481
897.980	155.212
898.108	169.692
898.237	163.663
898.365	159.692
898.493	166.635
898.621	160.433
898.749	162.433
898.877	162.404
899.005	160.702
899.133	164.048
899.262	177.413
899.390	158.019
899.518	168.933
899.646	161.558
899.774	156.462
899.902	157.644
900.030	173.856
900.158	162.413
900.287	163.077
900.415	162.337
900.543	162.587
900.671	167.317
900.799	161.769
900.927	161.221
901.055	172.846
901.183	169.279
901.312	170.769
901.440	158.933
901.568	160.183
901.696	160.000
901.824	157.125
901.952	159.654
902.080	165.279
902.208	161.250
902.337	169.144
902.465	158.606
902.593	176.000
902.721	182.798
902.849	185.269
902.977	165.423
903.105	161.962
903.233	166.058
903.362	155.308
903.490	170.212
903.618	166.144
903.746	157.144
903.874	164.577
904.002	160.106
904.130	170.250
904.258	155.173
904.387	167.692
904.515	156.346
904.643	165.365
904.771	157.413
904.899	163.442
905.027	162.567
905.155	159.731
905.283	157.740
905.412	178.048
905.540	162.760
905.668	161.038
905.796	163.740
905.924	160.913
906.052	161.712
906.180	166.356
906.308	161.135
906.437	159.106
906.565	165.346
906.693	170.663
906.821	159.500
906.949	162.442
907.077	160.385
907.205	168.798
907.333	157.625
907.462	158.048
907.590	165.327
907.718	160.135
907.846	169.250
907.974	160.837
908.102	162.933
908.230	165.471
908.358	160.846
908.487	157.183
908.615	171.010
908.743	173.163
908.871	165.087
908.999	160.510
909.127	165.135
909.255	173.856
909.383	160.115
909.512	158.221
909.640	175.115
909.768	161.750
909.896	166.567
910.024	169.856
910.152	173.067
910.280	170.827
910.408	157.577
910.537	159.375
910.665	168.298
910.793	164.442
910.921	171.769
911.049	173.327
911.177	173.933
911.305	161.587
911.433	190.154
911.562	168.702
911.690	167.683
911.818	165.577
911.946	166.519
912.074	174.750
912.202	166.260
912.330	182.875
912.458	161.087
912.587	166.558
912.715	168.433
912.843	177.769
912.971	171.587
913.099	185.837
913.227	176.471
913.355	175.519
913.483	180.385
913.612	176.442
913.740	198.413
913.868	175.058
