sample11u_at_750.00nm_cut_at_1060.50Y_01.dat
19.06.2023
11:16:56
cut middle at Y: 1060.50
top cursor: 1109 down cursor: 1012 mean of: 97 lines , 2560 datapoints
wavelength(nm)	intensity[arb. units]
585.996	1776.969
586.124	1710.000
586.252	1718.546
586.380	1710.392
586.508	1709.485
586.637	1718.876
586.765	1719.773
586.893	1722.557
587.021	1725.072
587.149	1737.546
587.277	1734.979
587.405	1746.093
587.533	1729.000
587.662	1731.155
587.790	1735.577
587.918	1746.021
588.046	1740.196
588.174	1752.948
588.302	1742.897
588.430	1739.814
588.558	1752.526
588.687	1767.381
588.815	1777.505
588.943	1765.165
589.071	1754.835
589.199	1773.351
589.327	1762.093
589.455	1758.773
589.583	1771.742
589.712	1766.340
589.840	1771.804
589.968	1777.299
590.096	1774.649
590.224	1774.835
590.352	1777.804
590.480	1781.979
590.608	1790.454
590.737	1778.959
590.865	1786.969
590.993	1797.464
591.121	1776.526
591.249	1804.495
591.377	1784.887
591.505	1793.155
591.633	1791.742
591.762	1814.598
591.890	1806.763
592.018	1803.258
592.146	1801.041
592.274	1797.010
592.402	1790.134
592.530	1800.495
592.658	1818.474
592.787	1816.278
592.915	1809.268
593.043	1817.567
593.171	1819.722
593.299	1829.990
593.427	1825.093
593.555	1819.227
593.683	1817.278
593.812	1821.979
593.940	1846.928
594.068	1832.113
594.196	1850.495
594.324	1844.433
594.452	1874.216
594.580	1873.567
594.708	1876.845
594.837	1861.979
594.965	1873.278
595.093	1877.649
595.221	1869.629
595.349	1875.299
595.477	1879.784
595.605	1882.165
595.733	1922.825
595.862	1913.546
595.990	1897.495
596.118	1901.258
596.246	1918.309
596.374	1916.052
596.502	1924.443
596.630	1938.247
596.758	1934.309
596.887	1934.340
597.015	1939.062
597.143	1926.041
597.271	1944.392
597.399	1927.763
597.527	1947.165
597.655	1938.526
597.783	1930.619
597.912	1950.289
598.040	1950.165
598.168	1948.103
598.296	1932.361
598.424	1935.505
598.552	1941.536
598.680	1931.804
598.808	1952.330
598.937	1966.608
599.065	1942.423
599.193	1930.093
599.321	1930.412
599.449	1951.732
599.577	1937.423
599.705	1945.247
599.833	1955.753
599.962	1946.268
600.090	1952.918
600.218	1953.299
600.346	1959.454
600.474	1956.526
600.602	1964.629
600.730	1970.608
600.858	1972.041
600.987	1963.515
601.115	1953.670
601.243	1952.464
601.371	1977.289
601.499	1979.866
601.627	1970.247
601.755	1971.546
601.883	1981.948
602.012	2000.835
602.140	1999.402
602.268	1997.289
602.396	2009.237
602.524	2009.072
602.652	2021.938
602.780	2025.990
602.908	2042.320
603.037	2054.072
603.165	2041.948
603.293	2056.454
603.421	2056.897
603.549	2051.485
603.677	2076.010
603.805	2070.711
603.933	2100.691
604.062	2092.237
604.190	2116.814
604.318	2099.588
604.446	2119.866
604.574	2109.948
604.702	2120.598
604.830	2129.186
604.958	2142.093
605.087	2160.546
605.215	2152.887
605.343	2170.546
605.471	2171.258
605.599	2160.196
605.727	2177.165
605.855	2184.546
605.983	2175.588
606.112	2203.351
606.240	2208.082
606.368	2206.216
606.496	2203.948
606.624	2215.773
606.752	2193.258
606.880	2208.938
607.008	2227.010
607.137	2231.649
607.265	2221.825
607.393	2230.237
607.521	2234.588
607.649	2225.433
607.777	2222.732
607.905	2238.577
608.033	2237.701
608.162	2228.938
608.290	2242.969
608.418	2249.557
608.546	2243.041
608.674	2265.763
608.802	2242.206
608.930	2260.196
609.058	2257.268
609.187	2254.876
609.315	2243.649
609.443	2248.722
609.571	2246.515
609.699	2256.763
609.827	2237.990
609.955	2250.753
610.083	2253.536
610.212	2259.340
610.340	2265.371
610.468	2262.918
610.596	2266.309
610.724	2252.732
610.852	2267.412
610.980	2253.124
611.108	2281.247
611.237	2268.918
611.365	2261.928
611.493	2284.113
611.621	2281.701
611.749	2304.897
611.877	2304.619
612.005	2295.464
612.133	2275.794
612.262	2307.856
612.390	2316.031
612.518	2319.175
612.646	2316.000
612.774	2326.608
612.902	2327.845
613.030	2332.464
613.158	2351.763
613.287	2350.361
613.415	2367.010
613.543	2365.330
613.671	2369.608
613.799	2378.887
613.927	2367.258
614.055	2386.825
614.183	2390.278
614.312	2393.278
614.440	2401.268
614.568	2404.845
614.696	2419.216
614.824	2437.649
614.952	2426.629
615.080	2439.897
615.208	2457.680
615.337	2459.588
615.465	2445.423
615.593	2462.381
615.721	2463.330
615.849	2470.845
615.977	2474.588
616.105	2473.969
616.233	2483.794
616.362	2516.887
616.490	2483.732
616.618	2493.825
616.746	2503.619
616.874	2528.515
617.002	2512.103
617.130	2542.691
617.258	2565.680
617.387	2522.887
617.515	2517.979
617.643	2522.093
617.771	2551.649
617.899	2548.113
618.027	2517.361
618.155	2575.969
618.283	2528.072
618.412	2547.794
618.540	2550.309
618.668	2546.897
618.796	2550.082
618.924	2626.515
619.052	2567.701
619.180	2549.979
619.308	2573.784
619.437	2590.144
619.565	2569.113
619.693	2569.454
619.821	2601.753
619.949	2580.175
620.077	2598.763
620.205	2616.330
620.333	2600.722
620.462	2614.619
620.590	2660.299
620.718	2617.464
620.846	2642.278
620.974	2647.155
621.102	2636.866
621.230	2632.278
621.358	2682.186
621.487	2612.010
621.615	2639.216
621.743	2661.062
621.871	2649.041
621.999	2681.979
622.127	2668.423
622.255	2661.474
622.383	2668.134
622.512	2671.062
622.640	2782.619
622.768	2667.546
622.896	2665.299
623.024	2665.588
623.152	2768.351
623.280	2719.536
623.408	2659.515
623.537	2680.309
623.665	2670.526
623.793	2708.918
623.921	2681.536
624.049	2670.258
624.177	2681.876
624.305	2720.948
624.433	2718.031
624.562	2706.495
624.690	2740.082
624.818	2739.794
624.946	2851.670
625.074	2726.969
625.202	2697.938
625.330	2723.361
625.458	2774.660
625.587	2713.289
625.715	2765.082
625.843	2845.412
625.971	2752.052
626.099	2741.165
626.227	2738.722
626.355	2748.371
626.483	2832.505
626.612	2743.000
626.740	2750.289
626.868	2798.082
626.996	2744.196
627.124	2753.155
627.252	2751.175
627.380	2801.464
627.508	2768.124
627.637	2785.124
627.765	2811.052
627.893	2815.784
628.021	2810.340
628.149	2809.443
628.277	2833.268
628.405	2873.990
628.533	2805.876
628.662	2861.918
628.790	2842.546
628.918	2845.938
629.046	2892.804
629.174	2849.918
629.302	2925.856
629.430	2845.804
629.558	2883.608
629.687	2879.330
629.815	2897.763
629.943	2937.021
630.071	2926.371
630.199	2921.320
630.327	2936.557
630.455	2919.381
630.583	2976.969
630.712	2946.794
630.840	2966.711
630.968	2976.423
631.096	2936.959
631.224	2961.031
631.352	2995.165
631.480	2992.969
631.608	3012.165
631.737	3059.680
631.865	3174.186
631.993	3031.485
632.121	3133.505
632.249	3102.763
632.377	3069.649
632.505	3047.433
632.633	3029.784
632.762	3072.175
632.890	3135.959
633.018	3035.639
633.146	3062.608
633.274	3082.227
633.402	3113.773
633.530	3043.247
633.658	3172.144
633.787	3056.639
633.915	3129.206
634.043	3076.021
634.171	3088.856
634.299	3123.876
634.427	3150.753
634.555	3204.557
634.683	3120.670
634.812	3119.773
634.940	3105.825
635.068	3092.753
635.196	3130.866
635.324	3103.021
635.452	3180.381
635.580	3159.320
635.708	3106.454
635.837	3172.918
635.965	3149.588
636.093	3146.351
636.221	3134.268
636.349	3167.340
636.477	3109.959
636.605	3260.680
636.733	3111.577
636.862	3119.887
636.990	3165.227
637.118	3187.052
637.246	3154.144
637.374	3192.959
637.502	3148.340
637.630	3118.155
637.758	3159.072
637.887	3115.247
638.015	3164.619
638.143	3144.392
638.271	3166.155
638.399	3181.546
638.527	3153.433
638.655	3138.320
638.783	3249.485
638.912	3203.577
639.040	3194.794
639.168	3206.474
639.296	3150.237
639.424	3295.959
639.552	3176.918
639.680	3211.691
639.808	3228.175
639.937	3177.691
640.065	3172.392
640.193	3257.784
640.321	3201.825
640.449	3256.423
640.577	3270.505
640.705	3221.753
640.833	3321.010
640.962	3243.773
641.090	3214.753
641.218	3225.825
641.346	3276.299
641.474	3265.175
641.602	3239.526
641.730	3252.340
641.858	3244.464
641.987	3290.680
642.115	3326.206
642.243	3317.309
642.371	3349.691
642.499	3312.588
642.627	3349.082
642.755	3350.670
642.883	3368.361
643.012	3334.763
643.140	3344.000
643.268	3367.814
643.396	3352.598
643.524	3457.969
643.652	3400.979
643.780	3374.351
643.908	3371.763
644.037	3504.691
644.165	3415.856
644.293	3471.639
644.421	3374.856
644.549	3488.062
644.677	3460.691
644.805	3464.052
644.933	3413.670
645.062	3471.526
645.190	3503.670
645.318	3527.660
645.446	3467.330
645.574	3473.722
645.702	3516.072
645.830	3615.289
645.958	3483.608
646.087	3600.773
646.215	3481.887
646.343	3613.320
646.471	3600.680
646.599	3564.021
646.727	3518.206
646.855	3546.948
646.983	3545.948
647.112	3535.732
647.240	3653.722
647.368	3582.722
647.496	3586.247
647.624	3518.474
647.752	3554.526
647.880	3554.237
648.008	3555.928
648.137	3567.082
648.265	3563.196
648.393	3561.330
648.521	3555.165
648.649	3619.866
648.777	3589.227
648.905	3557.711
649.033	3606.660
649.162	3573.577
649.290	3565.423
649.418	3589.680
649.546	3654.082
649.674	3646.361
649.802	3594.753
649.930	3691.021
650.058	3532.340
650.187	3596.845
650.315	3557.546
650.443	3633.763
650.571	3597.443
650.699	3571.969
650.827	3566.536
650.955	3596.041
651.083	3648.701
651.212	3639.402
651.340	3671.052
651.468	3610.299
651.596	3624.062
651.724	3608.825
651.852	3604.557
651.980	3588.753
652.108	3684.155
652.237	3634.206
652.365	3674.866
652.493	3582.258
652.621	3617.753
652.749	3679.670
652.877	3595.216
653.005	3651.299
653.133	3600.938
653.262	3653.278
653.390	3604.701
653.518	3780.887
653.646	3636.351
653.774	3778.959
653.902	3680.392
654.030	3632.866
654.158	3637.918
654.287	3637.959
654.415	3664.907
654.543	3657.887
654.671	3711.814
654.799	3666.485
654.927	3634.103
655.055	3622.722
655.183	3661.856
655.312	3661.763
655.440	3665.794
655.568	3639.711
655.696	3746.268
655.824	3747.825
655.952	3662.753
656.080	3631.515
656.208	3763.423
656.337	3696.134
656.465	3730.588
656.593	3717.969
656.721	3703.691
656.849	3762.474
656.977	3671.052
657.105	3687.021
657.233	3662.155
657.362	3691.515
657.490	3694.546
657.618	3708.907
657.746	3694.990
657.874	3675.289
658.002	3646.423
658.130	3669.835
658.258	3678.784
658.387	3670.546
658.515	3653.113
658.643	3711.165
658.771	3690.289
658.899	3686.722
659.027	3681.753
659.155	3682.010
659.283	3807.361
659.412	3691.093
659.540	3764.031
659.668	3683.021
659.796	3733.247
659.924	3725.722
660.052	3715.134
660.180	3684.732
660.308	3724.392
660.437	3711.629
660.565	3696.041
660.693	3674.412
660.821	3738.753
660.949	3693.381
661.077	3707.021
661.205	3736.021
661.333	3669.320
661.462	3744.691
661.590	3761.144
661.718	3819.144
661.846	3795.670
661.974	3811.546
662.102	3723.887
662.230	3771.155
662.358	3721.021
662.487	3715.485
662.615	3719.021
662.743	3717.567
662.871	3697.876
662.999	3677.856
663.127	3706.515
663.255	3796.691
663.383	3850.660
663.512	3714.021
663.640	3754.165
663.768	3734.299
663.896	3713.052
664.024	3778.320
664.152	3727.536
664.280	3771.031
664.408	3758.175
664.537	3780.722
664.665	3704.876
664.793	3700.351
664.921	3702.619
665.049	3773.165
665.177	3738.948
665.305	3762.155
665.433	3758.010
665.562	3753.907
665.690	3755.598
665.818	3914.443
665.946	3763.196
666.074	3747.887
666.202	3742.103
666.330	3755.124
666.458	3764.608
666.587	3709.289
666.715	3759.041
666.843	3715.536
666.971	3727.289
667.099	3775.093
667.227	3762.278
667.355	3774.093
667.483	3749.237
667.612	3748.031
667.740	3786.546
667.868	3790.928
667.996	3750.093
668.124	3762.309
668.252	3777.165
668.380	3720.794
668.508	3759.082
668.637	3777.082
668.765	3762.155
668.893	3799.887
669.021	3701.649
669.149	3795.938
669.277	3764.794
669.405	3755.247
669.533	3758.990
669.662	3903.186
669.790	3715.433
669.918	3814.567
670.046	3779.268
670.174	3801.340
670.302	3765.000
670.430	3734.794
670.558	3797.742
670.687	3758.639
670.815	3828.742
670.943	3681.619
671.071	3689.794
671.199	3680.103
671.327	3668.412
671.455	3678.299
671.583	3667.474
671.712	3761.299
671.840	3686.948
671.968	3707.536
672.096	3701.742
672.224	3629.691
672.352	3724.052
672.480	3628.124
672.608	3623.206
672.737	3601.784
672.865	3675.680
672.993	3594.990
673.121	3553.969
673.249	3579.588
673.377	3525.144
673.505	3549.959
673.633	3571.866
673.762	3526.010
673.890	3521.186
674.018	3674.392
674.146	3525.763
674.274	3529.938
674.402	3663.175
674.530	3521.567
674.658	3527.062
674.787	3477.454
674.915	3507.485
675.043	3506.784
675.171	3507.361
675.299	3445.639
675.427	3459.969
675.555	3428.804
675.683	3451.175
675.812	3429.918
675.940	3399.165
676.068	3416.660
676.196	3391.691
676.324	3406.577
676.452	3391.010
676.580	3352.938
676.708	3375.794
676.837	3398.010
676.965	3362.907
677.093	3385.753
677.221	3335.216
677.349	3339.959
677.477	3399.000
677.605	3320.918
677.733	3376.052
677.862	3292.041
677.990	3292.526
678.118	3294.918
678.246	3297.186
678.374	3304.887
678.502	3263.412
678.630	3245.392
678.758	3223.113
678.887	3290.969
679.015	3225.680
679.143	3218.237
679.271	3207.227
679.399	3227.773
679.527	3239.959
679.655	3212.289
679.783	3204.278
679.912	3193.784
680.040	3240.577
680.168	3189.557
680.296	3181.155
680.424	3155.639
680.552	3188.876
680.680	3219.938
680.808	3125.701
680.937	3114.577
681.065	3147.959
681.193	3119.103
681.321	3114.938
681.449	3120.474
681.577	3085.392
681.705	3100.598
681.833	3099.701
681.962	3065.598
682.090	3191.227
682.218	3069.825
682.346	3070.948
682.474	3063.866
682.602	3046.196
682.730	3093.093
682.858	3023.155
682.987	3070.381
683.115	3051.031
683.243	3049.969
683.371	3007.454
683.499	2999.515
683.627	3050.546
683.755	3065.041
683.883	3109.330
684.012	3013.825
684.140	2986.856
684.268	2981.784
684.396	2996.361
684.524	2989.062
684.652	3023.072
684.780	3021.588
684.908	3022.124
685.037	2952.598
685.165	2946.691
685.293	2984.990
685.421	3022.464
685.549	2916.784
685.677	2922.928
685.805	3061.979
685.933	2951.928
686.062	2912.175
686.190	2908.567
686.318	2963.763
686.446	2914.814
686.574	2883.412
686.702	2962.567
686.830	2862.887
686.958	2891.103
687.087	2865.938
687.215	2884.216
687.343	2843.082
687.471	2900.052
687.599	2826.825
687.727	2970.536
687.855	2841.443
687.983	2849.072
688.112	2890.711
688.240	2789.175
688.368	2767.340
688.496	2795.309
688.624	2819.247
688.752	2790.258
688.880	2772.979
689.008	2768.278
689.137	2740.392
689.265	2706.402
689.393	2718.134
689.521	2708.052
689.649	2731.629
689.777	2692.464
689.905	2715.577
690.033	2664.691
690.162	2672.351
690.290	2674.134
690.418	2648.722
690.546	2657.206
690.674	2689.216
690.802	2631.753
690.930	2629.619
691.058	2645.979
691.187	2622.763
691.315	2599.907
691.443	2631.320
691.571	2578.536
691.699	2571.423
691.827	2611.443
691.955	2552.340
692.083	2546.247
692.212	2571.113
692.340	2548.701
692.468	2522.072
692.596	2524.742
692.724	2533.763
692.852	2492.639
692.980	2495.577
693.108	2475.443
693.237	2483.258
693.365	2461.340
693.493	2451.454
693.621	2435.361
693.749	2438.990
693.877	2416.680
694.005	2409.948
694.133	2422.784
694.262	2394.639
694.390	2390.454
694.518	2372.010
694.646	2370.206
694.774	2380.887
694.902	2340.124
695.030	2387.856
695.158	2327.330
695.287	2342.784
695.415	2309.144
695.543	2311.639
695.671	2295.052
695.799	2273.330
695.927	2274.258
696.055	2268.691
696.183	2293.454
696.312	2261.505
696.440	2239.876
696.568	2238.062
696.696	2227.361
696.824	2216.031
696.952	2218.268
697.080	2186.804
697.208	2203.784
697.337	2174.948
697.465	2181.371
697.593	2171.814
697.721	2170.856
697.849	2163.113
697.977	2146.773
698.105	2157.433
698.233	2137.701
698.362	2115.072
698.490	2120.619
698.618	2117.268
698.746	2082.804
698.874	2090.732
699.002	2093.567
699.130	2081.041
699.258	2084.814
699.387	2061.887
699.515	2029.598
699.643	2049.866
699.771	2030.608
699.899	2039.495
700.027	2012.588
700.155	2004.969
700.283	2007.000
700.412	1973.711
700.540	1979.175
700.668	1980.701
700.796	1967.835
700.924	1938.856
701.052	1934.072
701.180	1931.402
701.308	1910.155
701.437	1905.206
701.565	1902.557
701.693	1888.557
701.821	1885.474
701.949	1869.938
702.077	1871.979
702.205	1854.691
702.333	1859.969
702.462	1841.825
702.590	1831.299
702.718	1837.474
702.846	1802.103
702.974	1809.835
703.102	1803.392
703.230	1787.155
703.358	1768.010
703.487	1757.247
703.615	1759.536
703.743	1731.134
703.871	1733.918
703.999	1723.134
704.127	1713.876
704.255	1710.845
704.383	1699.371
704.512	1686.062
704.640	1673.165
704.768	1664.649
704.896	1653.021
705.024	1648.227
705.152	1619.433
705.280	1627.959
705.408	1617.351
705.537	1610.938
705.665	1601.505
705.793	1592.608
705.921	1589.320
706.049	1579.103
706.177	1558.629
706.305	1554.351
706.433	1555.567
706.562	1548.691
706.690	1529.278
706.818	1524.371
706.946	1521.557
707.074	1513.165
707.202	1499.186
707.330	1494.825
707.458	1489.588
707.587	1478.938
707.715	1481.309
707.843	1466.103
707.971	1461.526
708.099	1443.454
708.227	1430.969
708.355	1433.361
708.483	1432.041
708.612	1428.021
708.740	1411.753
708.868	1413.134
708.996	1395.804
709.124	1389.990
709.252	1384.907
709.380	1375.918
709.508	1354.959
709.637	1365.134
709.765	1360.433
709.893	1345.289
710.021	1342.227
710.149	1335.299
710.277	1328.660
710.405	1323.773
710.533	1320.175
710.662	1311.753
710.790	1317.464
710.918	1305.784
711.046	1308.649
711.174	1297.928
711.302	1282.175
711.430	1274.289
711.558	1279.938
711.687	1269.959
711.815	1263.495
711.943	1264.948
712.071	1256.000
712.199	1239.938
712.327	1237.680
712.455	1236.876
712.583	1227.918
712.712	1217.134
712.840	1222.660
712.968	1207.010
713.096	1196.835
713.224	1198.588
713.352	1202.907
713.480	1190.423
713.608	1186.567
713.737	1174.144
713.865	1164.897
713.993	1164.598
714.121	1163.010
714.249	1165.907
714.377	1155.371
714.505	1156.134
714.633	1144.763
714.762	1132.165
714.890	1134.660
715.018	1127.237
715.146	1122.608
715.274	1121.124
715.402	1110.309
715.530	1115.289
715.658	1096.619
715.787	1105.237
715.915	1098.433
716.043	1087.979
716.171	1082.866
716.299	1079.186
716.427	1079.701
716.555	1068.825
716.683	1060.309
716.812	1062.897
716.940	1063.485
717.068	1040.371
717.196	1047.619
717.324	1044.021
717.452	1027.454
717.580	1030.866
717.708	1024.258
717.837	1027.794
717.965	1016.856
718.093	1014.247
718.221	1001.959
718.349	1003.320
718.477	997.309
718.605	990.392
718.733	980.340
718.862	981.722
718.990	978.990
719.118	969.072
719.246	960.309
719.374	962.515
719.502	962.773
719.630	949.010
719.758	947.598
719.887	939.825
720.015	947.175
720.143	933.969
720.271	938.392
720.399	920.567
720.527	923.330
720.655	912.351
720.783	901.052
720.912	901.649
721.040	902.969
721.168	894.649
721.296	888.835
721.424	880.753
721.552	879.876
721.680	880.351
721.808	876.113
721.937	870.649
722.065	857.227
722.193	850.557
722.321	857.062
722.449	846.804
722.577	853.474
722.705	835.495
722.833	843.959
722.962	826.206
723.090	819.588
723.218	813.351
723.346	810.918
723.474	808.268
723.602	800.052
723.730	803.907
723.858	797.701
723.987	789.371
724.115	780.907
724.243	778.485
724.371	783.557
724.499	781.505
724.627	774.371
724.755	759.680
724.883	768.804
725.012	754.237
725.140	749.773
725.268	757.062
725.396	745.485
725.524	744.660
725.652	729.918
725.780	729.000
725.908	723.052
726.037	715.804
726.165	717.773
726.293	709.701
726.421	709.701
726.549	709.691
726.677	699.093
726.805	698.876
726.933	699.598
727.062	696.660
727.190	688.619
727.318	684.577
727.446	684.670
727.574	682.206
727.702	677.979
727.830	670.144
727.958	667.464
728.087	662.361
728.215	658.433
728.343	665.165
728.471	650.660
728.599	654.072
728.727	646.474
728.855	651.866
728.983	641.082
729.112	638.412
729.240	637.670
729.368	632.680
729.496	632.412
729.624	629.660
729.752	618.804
729.880	620.216
730.008	625.340
730.137	616.546
730.265	608.753
730.393	607.804
730.521	611.691
730.649	603.474
730.777	598.804
730.905	596.670
731.033	592.485
731.162	594.134
731.290	589.969
731.418	582.505
731.546	594.196
731.674	579.351
731.802	575.814
731.930	577.423
732.058	575.021
732.187	570.691
732.315	563.485
732.443	573.134
732.571	557.660
732.699	564.474
732.827	555.454
732.955	556.526
733.083	549.753
733.212	555.031
733.340	545.701
733.468	551.546
733.596	545.392
733.724	541.309
733.852	541.402
733.980	532.804
734.108	536.495
734.237	534.464
734.365	527.959
734.493	531.268
734.621	522.546
734.749	530.753
734.877	520.979
735.005	519.247
735.133	518.959
735.262	519.412
735.390	511.289
735.518	513.454
735.646	503.660
735.774	503.670
735.902	503.000
736.030	504.010
736.158	498.825
736.287	496.031
736.415	501.474
736.543	497.588
736.671	491.866
736.799	491.227
736.927	480.175
737.055	484.443
737.183	485.660
737.312	482.784
737.440	474.876
737.568	476.351
737.696	476.381
737.824	480.000
737.952	475.196
738.080	471.124
738.208	466.753
738.337	458.155
738.465	466.856
738.593	454.103
738.721	450.299
738.849	457.845
738.977	457.010
739.105	450.814
739.233	449.928
739.362	445.113
739.490	448.021
739.618	440.330
739.746	446.474
739.874	440.680
740.002	442.990
740.130	424.691
740.258	433.258
740.387	435.928
740.515	432.588
740.643	435.031
740.771	427.423
740.899	423.062
741.027	422.763
741.155	418.031
741.283	420.711
741.412	421.691
741.540	409.608
741.668	413.052
741.796	410.742
741.924	415.134
742.052	410.515
742.180	408.887
742.308	404.361
742.437	404.711
742.565	406.062
742.693	402.794
742.821	400.691
742.949	400.371
743.077	401.897
743.205	398.402
743.333	390.639
743.462	393.814
743.590	386.021
743.718	389.196
743.846	387.216
743.974	385.979
744.102	379.680
744.230	382.897
744.358	374.835
744.487	377.031
744.615	372.691
744.743	375.093
744.871	371.948
744.999	370.093
745.127	365.371
745.255	367.546
745.383	368.608
745.512	367.268
745.640	361.474
745.768	367.021
745.896	356.784
746.024	357.660
746.152	355.670
746.280	359.299
746.408	353.371
746.537	351.536
746.665	358.093
746.793	352.711
746.921	355.082
747.049	347.340
747.177	344.402
747.305	337.423
747.433	346.371
747.562	343.268
747.690	338.907
747.818	337.753
747.946	331.320
748.074	334.619
748.202	337.536
748.330	328.464
748.458	331.371
748.587	330.794
748.715	327.052
748.843	327.474
748.971	327.598
749.099	329.876
749.227	323.670
749.355	318.907
749.483	320.227
749.612	316.598
749.740	316.670
749.868	316.495
749.996	316.082
750.124	314.598
750.252	313.928
750.380	313.825
750.508	313.454
750.637	309.103
750.765	312.010
750.893	309.577
751.021	306.959
751.149	306.526
751.277	302.979
751.405	307.392
751.533	303.897
751.662	308.113
751.790	302.742
751.918	303.918
752.046	300.247
752.174	300.021
752.302	297.948
752.430	295.526
752.558	294.165
752.687	293.247
752.815	295.742
752.943	290.299
753.071	291.680
753.199	286.299
753.327	288.237
753.455	284.351
753.583	285.320
753.712	289.165
753.840	281.557
753.968	282.557
754.096	274.082
754.224	280.856
754.352	278.515
754.480	277.742
754.608	274.186
754.737	274.990
754.865	272.392
754.993	272.474
755.121	272.505
755.249	271.165
755.377	270.072
755.505	267.938
755.633	269.268
755.762	260.351
755.890	265.866
756.018	262.794
756.146	261.773
756.274	263.753
756.402	261.340
756.530	257.608
756.658	258.093
756.787	252.258
756.915	257.320
757.043	253.876
757.171	258.031
757.299	252.742
757.427	249.557
757.555	248.897
757.683	252.186
757.812	247.763
757.940	246.299
758.068	248.227
758.196	241.381
758.324	248.515
758.452	244.784
758.580	239.814
758.708	244.856
758.837	238.299
758.965	238.567
759.093	236.175
759.221	234.701
759.349	236.742
759.477	231.670
759.605	229.845
759.733	231.691
759.862	232.897
759.990	228.031
760.118	227.629
760.246	228.990
760.374	227.289
760.502	222.918
760.630	227.196
760.758	223.866
760.887	219.598
761.015	216.907
761.143	224.103
761.271	215.320
761.399	218.536
761.527	219.402
761.655	214.680
761.783	217.979
761.912	211.845
762.040	214.351
762.168	212.577
762.296	209.629
762.424	207.722
762.552	208.052
762.680	206.598
762.808	208.196
762.937	210.897
763.065	209.402
763.193	208.969
763.321	207.258
763.449	202.299
763.577	202.526
763.705	201.381
763.833	204.021
763.962	200.753
764.090	200.680
764.218	199.990
764.346	198.258
764.474	196.938
764.602	200.186
764.730	199.134
764.858	200.588
764.987	195.113
765.115	196.031
765.243	196.629
765.371	192.948
765.499	192.330
765.627	193.804
765.755	194.206
765.883	188.722
766.012	191.412
766.140	188.227
766.268	192.876
766.396	189.959
766.524	187.897
766.652	187.722
766.780	185.918
766.908	187.216
767.037	188.402
767.165	188.289
767.293	187.175
767.421	184.969
767.549	184.464
767.677	184.876
767.805	186.722
767.933	181.546
768.062	183.124
768.190	180.227
768.318	182.320
768.446	180.990
768.574	182.691
768.702	184.216
768.830	178.567
768.958	177.588
769.087	179.670
769.215	181.526
769.343	178.402
769.471	176.608
769.599	182.227
769.727	178.381
769.855	176.773
769.983	175.031
770.112	178.031
770.240	177.289
770.368	174.938
770.496	178.423
770.624	174.381
770.752	180.082
770.880	173.515
771.008	170.629
771.137	176.093
771.265	171.845
771.393	170.928
771.521	170.588
771.649	171.526
771.777	171.948
771.905	172.773
772.033	174.722
772.162	174.082
772.290	172.330
772.418	172.526
772.546	171.897
772.674	170.804
772.802	168.649
772.930	168.876
773.058	168.454
773.187	163.515
773.315	167.515
773.443	163.742
773.571	167.361
773.699	164.845
773.827	164.876
773.955	167.052
774.083	166.670
774.212	165.598
774.340	164.093
774.468	163.680
774.596	163.412
774.724	164.742
774.852	162.227
774.980	162.515
775.108	162.443
775.237	161.381
775.365	160.330
775.493	166.124
775.621	159.351
775.749	161.165
775.877	160.227
776.005	163.392
776.133	162.732
776.262	161.320
776.390	159.464
776.518	157.680
776.646	160.340
776.774	155.660
776.902	158.649
777.030	160.412
777.158	152.619
777.287	156.959
777.415	156.969
777.543	155.320
777.671	159.155
777.799	155.969
777.927	157.732
778.055	155.918
778.183	155.866
778.312	154.866
778.440	155.155
778.568	154.753
778.696	151.918
778.824	156.825
778.952	154.351
779.080	151.526
779.208	152.876
779.337	150.608
779.465	151.196
779.593	151.227
779.721	152.856
779.849	150.649
779.977	151.845
780.105	150.124
780.233	150.701
780.362	147.515
780.490	149.041
780.618	149.907
780.746	149.979
780.874	148.536
781.002	148.794
781.130	149.371
781.258	146.010
781.387	150.258
781.515	146.093
781.643	142.866
781.771	146.392
781.899	146.113
782.027	144.701
782.155	146.371
782.283	143.340
782.412	144.330
782.540	144.907
782.668	144.897
782.796	142.639
782.924	143.660
783.052	141.907
783.180	144.371
783.308	142.701
783.437	142.268
783.565	142.546
783.693	142.670
783.821	143.103
783.949	142.021
784.077	141.134
784.205	141.701
784.333	144.464
784.462	140.258
784.590	144.619
784.718	140.041
784.846	138.165
784.974	140.567
785.102	139.835
785.230	139.278
785.358	139.000
785.487	138.577
785.615	137.928
785.743	134.784
785.871	136.443
785.999	138.216
786.127	137.412
786.255	139.742
786.383	138.031
786.512	138.649
786.640	136.567
786.768	139.443
786.896	135.722
787.024	135.381
787.152	134.835
787.280	135.495
787.408	137.124
787.537	136.454
787.665	135.598
787.793	133.649
787.921	136.464
788.049	136.237
788.177	131.814
788.305	134.000
788.433	134.577
788.562	133.464
788.690	134.505
788.818	131.897
788.946	132.763
789.074	132.144
789.202	134.505
789.330	132.536
789.458	132.959
789.587	130.856
789.715	131.701
789.843	132.773
789.971	131.598
790.099	131.268
790.227	131.082
790.355	131.887
790.483	129.237
790.612	129.979
790.740	131.402
790.868	132.247
790.996	132.845
791.124	128.546
791.252	129.928
791.380	132.443
791.508	128.237
791.637	131.227
791.765	129.969
791.893	127.546
792.021	128.959
792.149	128.670
792.277	128.320
792.405	130.938
792.533	128.041
792.662	126.835
792.790	128.588
792.918	128.649
793.046	125.938
793.174	126.206
793.302	125.278
793.430	126.670
793.558	129.144
793.687	125.763
793.815	127.557
793.943	124.608
794.071	126.155
794.199	124.052
794.327	123.773
794.455	125.660
794.583	124.062
794.712	127.268
794.840	125.526
794.968	122.505
795.096	123.227
795.224	123.773
795.352	122.433
795.480	123.835
795.608	127.423
795.737	125.577
795.865	122.753
795.993	123.742
796.121	123.351
796.249	121.866
796.377	121.639
796.505	124.639
796.633	125.598
796.762	121.722
796.890	125.309
797.018	122.660
797.146	122.639
797.274	120.124
797.402	121.186
797.530	122.371
797.658	123.866
797.787	119.196
797.915	120.598
798.043	122.351
798.171	122.186
798.299	117.907
798.427	120.897
798.555	117.340
798.683	117.691
798.812	120.412
798.940	120.093
799.068	120.845
799.196	118.938
799.324	119.000
799.452	120.309
799.580	117.227
799.708	118.495
799.837	119.072
799.965	117.216
800.093	117.206
800.221	119.990
800.349	118.876
800.477	117.433
800.605	116.567
800.733	116.588
800.862	119.144
800.990	118.268
801.118	116.443
801.246	116.320
801.374	115.598
801.502	118.041
801.630	115.670
801.758	116.196
801.887	114.196
802.015	115.959
802.143	117.247
802.271	118.309
802.399	116.598
802.527	114.361
802.655	115.485
802.783	115.299
802.912	113.753
803.040	114.753
803.168	114.495
803.296	114.485
803.424	113.381
803.552	114.402
803.680	113.454
803.808	113.278
803.937	113.732
804.065	114.845
804.193	112.907
804.321	112.536
804.449	112.732
804.577	112.680
804.705	113.361
804.833	111.722
804.962	112.485
805.090	112.742
805.218	111.928
805.346	112.371
805.474	113.485
805.602	113.144
805.730	111.784
805.858	111.701
805.987	110.485
806.115	112.093
806.243	112.289
806.371	110.856
806.499	111.835
806.627	112.082
806.755	112.959
806.883	112.485
807.012	111.010
807.140	111.216
807.268	109.619
807.396	111.340
807.524	111.021
807.652	112.072
807.780	111.412
807.908	110.990
808.037	109.381
808.165	110.866
808.293	113.113
808.421	111.082
808.549	110.938
808.677	109.598
808.805	111.062
808.933	109.371
809.062	109.753
809.190	111.381
809.318	110.567
809.446	110.680
809.574	109.340
809.702	110.010
809.830	107.722
809.958	108.814
810.087	109.990
810.215	112.485
810.343	111.227
810.471	110.804
810.599	109.485
810.727	111.979
810.855	108.866
810.983	110.691
811.112	111.247
811.240	107.814
811.368	109.866
811.496	110.247
811.624	109.082
811.752	109.423
811.880	108.835
812.008	107.804
812.137	108.289
812.265	106.990
812.393	107.392
812.521	107.474
812.649	109.577
812.777	108.485
812.905	107.041
813.033	107.557
813.162	106.258
813.290	107.619
813.418	107.103
813.546	107.526
813.674	107.897
813.802	107.052
813.930	107.361
814.058	107.309
814.187	107.588
814.315	106.794
814.443	107.031
814.571	106.216
814.699	106.866
814.827	107.938
814.955	107.330
815.083	106.629
815.212	107.546
815.340	106.639
815.468	106.619
815.596	105.216
815.724	106.897
815.852	107.186
815.980	107.278
816.108	105.825
816.237	105.680
816.365	106.959
816.493	106.155
816.621	106.062
816.749	106.680
816.877	105.144
817.005	105.134
817.133	105.856
817.262	106.186
817.390	107.433
817.518	106.268
817.646	104.845
817.774	104.546
817.902	107.464
818.030	105.701
818.158	107.062
818.287	106.402
818.415	106.093
818.543	104.711
818.671	105.897
818.799	106.856
818.927	106.237
819.055	105.474
819.183	106.381
819.312	104.897
819.440	104.155
819.568	105.887
819.696	105.660
819.824	104.639
819.952	104.485
820.080	105.701
820.208	105.082
820.337	105.732
820.465	104.773
820.593	104.763
820.721	104.619
820.849	104.567
820.977	105.361
821.105	106.392
821.233	105.814
821.362	105.093
821.490	105.557
821.618	105.660
821.746	102.979
821.874	103.722
822.002	103.722
822.130	103.990
822.258	103.278
822.387	103.546
822.515	105.165
822.643	104.639
822.771	104.330
822.899	104.320
823.027	103.660
823.155	104.289
823.283	102.969
823.412	105.340
823.540	104.722
823.668	105.021
823.796	103.175
823.924	105.866
824.052	103.515
824.180	102.732
824.308	102.701
824.437	103.196
824.565	102.959
824.693	104.474
824.821	102.371
824.949	102.876
825.077	102.619
825.205	101.794
825.333	102.887
825.462	103.918
825.590	102.186
825.718	100.887
825.846	102.845
825.974	103.268
826.102	102.814
826.230	101.938
826.358	103.381
826.487	102.814
826.615	100.691
826.743	101.856
826.871	102.608
826.999	103.670
827.127	102.711
827.255	102.856
827.383	103.124
827.512	103.175
827.640	103.454
827.768	103.845
827.896	101.495
828.024	102.320
828.152	102.113
828.280	102.670
828.408	104.351
828.537	102.371
828.665	101.825
828.793	102.165
828.921	102.515
829.049	102.763
829.177	102.784
829.305	102.979
829.433	100.546
829.562	100.464
829.690	103.433
829.818	102.680
829.946	101.247
830.074	101.443
830.202	103.784
830.330	101.691
830.458	103.052
830.587	101.237
830.715	101.577
830.843	101.289
830.971	102.082
831.099	100.784
831.227	100.866
831.355	101.412
831.483	102.639
831.612	102.237
831.740	102.742
831.868	102.546
831.996	101.155
832.124	102.299
832.252	101.433
832.380	101.990
832.508	101.938
832.637	101.237
832.765	100.732
832.893	101.897
833.021	101.320
833.149	101.680
833.277	102.052
833.405	101.959
833.533	100.495
833.662	101.959
833.790	101.258
833.918	102.639
834.046	101.814
834.174	101.464
834.302	102.124
834.430	100.258
834.558	101.588
834.687	101.629
834.815	101.990
834.943	100.361
835.071	100.196
835.199	100.227
835.327	101.464
835.455	100.567
835.583	102.093
835.712	100.670
835.840	101.196
835.968	100.515
836.096	100.773
836.224	100.866
836.352	102.289
836.480	100.247
836.608	101.423
836.737	101.340
836.865	101.299
836.993	100.969
837.121	102.835
837.249	101.113
837.377	100.732
837.505	100.660
837.633	100.876
837.762	101.021
837.890	101.866
838.018	100.557
838.146	101.474
838.274	100.814
838.402	101.062
838.530	99.464
838.658	99.381
838.787	100.598
838.915	101.649
839.043	102.268
839.171	100.979
839.299	102.052
839.427	101.227
839.555	101.227
839.683	101.402
839.812	101.495
839.940	101.351
840.068	100.979
840.196	100.866
840.324	100.464
840.452	101.103
840.580	100.093
840.708	100.629
840.837	100.794
840.965	100.691
841.093	101.402
841.221	102.093
841.349	101.866
841.477	101.371
841.605	100.969
841.733	100.412
841.862	102.381
841.990	101.113
842.118	99.866
842.246	99.557
842.374	99.412
842.502	99.856
842.630	100.485
842.758	99.835
842.887	100.649
843.015	99.814
843.143	100.474
843.271	99.423
843.399	100.670
843.527	100.866
843.655	100.433
843.783	101.010
843.912	100.845
844.040	100.711
844.168	101.433
844.296	100.732
844.424	100.804
844.552	101.258
844.680	100.247
844.808	100.227
844.937	101.371
845.065	100.959
845.193	100.732
845.321	99.938
845.449	100.175
845.577	101.330
845.705	100.351
845.833	100.979
845.962	100.526
846.090	98.773
846.218	99.845
846.346	101.485
846.474	100.216
846.602	99.680
846.730	100.093
846.858	100.711
846.987	99.598
847.115	100.691
847.243	101.289
847.371	101.835
847.499	100.299
847.627	100.959
847.755	99.031
847.883	98.918
848.012	99.938
848.140	99.351
848.268	100.144
848.396	100.134
848.524	100.629
848.652	100.742
848.780	98.794
848.908	101.216
849.037	100.031
849.165	101.928
849.293	99.041
849.421	102.175
849.549	100.052
849.677	98.567
849.805	100.897
849.933	100.526
850.062	101.082
850.190	98.680
850.318	99.598
850.446	99.639
850.574	98.773
850.702	99.237
850.830	99.330
850.958	99.361
851.087	100.629
851.215	100.660
851.343	99.722
851.471	99.526
851.599	100.732
851.727	99.196
851.855	99.804
851.983	100.412
852.112	99.794
852.240	99.938
852.368	100.619
852.496	99.093
852.624	99.722
852.752	99.701
852.880	100.247
853.008	99.763
853.137	100.454
853.265	100.814
853.393	100.124
853.521	99.835
853.649	100.289
853.777	100.351
853.905	99.938
854.033	98.371
854.162	99.866
854.290	101.000
854.418	98.577
854.546	98.021
854.674	99.536
854.802	98.608
854.930	98.876
855.058	100.134
855.187	99.701
855.315	98.784
855.443	99.454
855.571	99.784
855.699	100.134
855.827	99.619
855.955	100.588
856.083	98.082
856.212	100.464
856.340	100.196
856.468	100.031
856.596	99.557
856.724	99.619
856.852	99.124
856.980	99.093
857.108	99.588
857.237	98.753
857.365	98.722
857.493	99.763
857.621	99.258
857.749	98.814
857.877	98.515
858.005	99.897
858.133	97.866
858.262	99.299
858.390	100.237
858.518	99.515
858.646	99.948
858.774	99.897
858.902	99.701
859.030	100.072
859.158	99.670
859.287	98.948
859.415	98.546
859.543	99.433
859.671	100.515
859.799	100.907
859.927	99.680
860.055	99.897
860.183	100.021
860.312	99.340
860.440	98.103
860.568	99.464
860.696	99.835
860.824	99.619
860.952	99.361
861.080	99.134
861.208	100.505
861.337	98.567
861.465	98.660
861.593	99.680
861.721	99.639
861.849	99.227
861.977	99.124
862.105	99.732
862.233	98.557
862.362	100.557
862.490	99.969
862.618	99.732
862.746	99.495
862.874	101.412
863.002	100.876
863.130	99.814
863.258	100.732
863.387	99.907
863.515	99.969
863.643	98.969
863.771	100.381
863.899	100.392
864.027	100.887
864.155	99.505
864.283	98.196
864.412	100.155
864.540	99.742
864.668	98.330
864.796	100.918
864.924	100.340
865.052	98.938
865.180	100.093
865.308	100.876
865.437	99.773
865.565	100.134
865.693	98.701
865.821	98.897
865.949	100.433
866.077	100.567
866.205	98.804
866.333	99.711
866.462	99.505
866.590	99.639
866.718	99.577
866.846	100.247
866.974	99.887
867.102	99.278
867.230	97.907
867.358	99.361
867.487	99.969
867.615	99.412
867.743	99.629
867.871	101.588
867.999	100.784
868.127	100.062
868.255	101.196
868.383	100.763
868.512	100.588
868.640	98.567
868.768	100.598
868.896	100.010
869.024	100.258
869.152	99.866
869.280	100.371
869.408	100.216
869.537	100.278
869.665	99.722
869.793	98.804
869.921	100.021
870.049	100.608
870.177	100.103
870.305	101.186
870.433	100.103
870.562	100.474
870.690	100.309
870.818	99.928
870.946	98.959
871.074	100.000
871.202	99.062
871.330	100.155
871.458	100.619
871.587	100.309
871.715	99.361
871.843	100.588
871.971	100.557
872.099	98.577
872.227	98.969
872.355	98.959
872.483	99.464
872.612	100.701
872.740	98.577
872.868	99.289
872.996	99.082
873.124	100.134
873.252	100.804
873.380	100.113
873.508	100.237
873.637	99.856
873.765	98.485
873.893	99.268
874.021	100.526
874.149	99.804
874.277	100.392
874.405	100.546
874.533	101.588
874.662	98.763
874.790	99.907
874.918	100.155
875.046	99.165
875.174	99.155
875.302	100.732
875.430	98.959
875.558	97.742
875.687	99.175
875.815	100.722
875.943	100.206
876.071	100.536
876.199	101.144
876.327	100.196
876.455	99.845
876.583	100.526
876.712	99.979
876.840	100.402
876.968	100.124
877.096	100.103
877.224	99.454
877.352	98.588
877.480	98.887
877.608	99.381
877.737	99.835
877.865	98.196
877.993	99.784
878.121	99.938
878.249	101.680
878.377	99.814
878.505	99.536
878.633	100.124
878.762	100.619
878.890	100.021
879.018	100.351
879.146	100.247
879.274	100.907
879.402	100.412
879.530	99.495
879.658	100.814
879.787	100.000
879.915	99.557
880.043	98.557
880.171	99.309
880.299	99.907
880.427	99.351
880.555	99.577
880.683	100.691
880.812	99.124
880.940	98.691
881.068	99.928
881.196	99.608
881.324	101.289
881.452	100.278
881.580	99.794
881.708	98.763
881.837	99.722
881.965	99.990
882.093	99.340
882.221	100.320
882.349	99.062
882.477	100.794
882.605	101.258
882.733	100.268
882.862	100.340
882.990	100.412
883.118	100.990
883.246	100.794
883.374	101.134
883.502	99.732
883.630	101.680
883.758	101.608
883.887	100.093
884.015	101.485
884.143	101.144
884.271	100.742
884.399	99.629
884.527	99.062
884.655	100.196
884.783	101.258
884.912	100.691
885.040	100.392
885.168	99.660
885.296	99.722
885.424	99.588
885.552	99.938
885.680	99.103
885.808	99.144
885.937	101.227
886.065	99.155
886.193	100.041
886.321	101.794
886.449	101.093
886.577	99.639
886.705	100.485
886.833	101.340
886.962	101.464
887.090	100.969
887.218	100.742
887.346	98.732
887.474	101.381
887.602	100.835
887.730	98.742
887.858	100.062
887.987	101.144
888.115	98.289
888.243	100.381
888.371	100.814
888.499	101.320
888.627	99.144
888.755	99.423
888.883	100.041
889.012	99.722
889.140	99.402
889.268	99.814
889.396	100.072
889.524	99.897
889.652	99.340
889.780	99.773
889.908	99.361
890.037	99.660
890.165	98.794
890.293	100.454
890.421	100.619
890.549	100.701
890.677	100.577
890.805	99.856
890.933	100.227
891.062	100.392
891.190	99.804
891.318	100.289
891.446	101.237
891.574	99.763
891.702	98.722
891.830	99.887
891.958	100.670
892.087	100.907
892.215	100.536
892.343	101.031
892.471	100.093
892.599	100.340
892.727	101.423
892.855	100.959
892.983	101.196
893.112	100.247
893.240	101.124
893.368	101.082
893.496	100.268
893.624	100.309
893.752	100.794
893.880	100.186
894.008	100.454
894.137	100.959
894.265	100.856
894.393	101.330
894.521	99.557
894.649	99.732
894.777	99.247
894.905	100.082
895.033	101.340
895.162	101.670
895.290	99.505
895.418	101.124
895.546	101.577
895.674	98.773
895.802	99.289
895.930	98.258
896.058	99.856
896.187	101.557
896.315	100.773
896.443	100.371
896.571	101.464
896.699	101.124
896.827	100.144
896.955	99.887
897.083	100.289
897.212	101.639
897.340	100.979
897.468	100.381
897.596	99.918
897.724	99.588
897.852	100.567
897.980	99.237
898.108	99.856
898.237	99.639
898.365	99.691
898.493	100.928
898.621	100.340
898.749	100.732
898.877	100.928
899.005	100.402
899.133	100.969
899.262	100.041
899.390	98.959
899.518	100.907
899.646	100.443
899.774	101.165
899.902	99.835
900.030	100.340
900.158	100.598
900.287	99.742
900.415	99.763
900.543	100.155
900.671	101.701
900.799	100.887
900.927	99.598
901.055	99.546
901.183	100.010
901.312	99.969
901.440	102.247
901.568	100.825
901.696	100.680
901.824	100.361
901.952	101.113
902.080	100.825
902.208	99.845
902.337	102.351
902.465	100.918
902.593	101.876
902.721	101.928
902.849	99.845
902.977	99.649
903.105	100.144
903.233	100.598
903.362	101.876
903.490	99.247
903.618	99.320
903.746	99.649
903.874	101.361
904.002	102.464
904.130	100.928
904.258	100.464
904.387	100.495
904.515	101.340
904.643	101.031
904.771	101.237
904.899	100.010
905.027	100.330
905.155	99.711
905.283	100.825
905.412	100.515
905.540	100.278
905.668	99.289
905.796	98.505
905.924	100.505
906.052	100.742
906.180	101.330
906.308	98.649
906.437	98.546
906.565	100.598
906.693	100.289
906.821	98.866
906.949	99.495
907.077	99.474
907.205	101.247
907.333	100.175
907.462	100.814
907.590	100.784
907.718	100.000
907.846	100.649
907.974	101.732
908.102	100.742
908.230	100.010
908.358	99.278
908.487	99.557
908.615	101.093
908.743	99.804
908.871	101.649
908.999	99.258
909.127	99.381
909.255	99.557
909.383	99.485
909.512	100.990
909.640	101.856
909.768	101.608
909.896	101.351
910.024	100.691
910.152	101.835
910.280	100.082
910.408	101.897
910.537	101.144
910.665	100.804
910.793	100.546
910.921	100.124
911.049	100.041
911.177	100.093
911.305	101.464
911.433	101.515
911.562	99.959
911.690	100.443
911.818	99.979
911.946	101.412
912.074	101.289
912.202	101.330
912.330	100.649
912.458	100.897
912.587	99.979
912.715	99.680
912.843	101.186
912.971	101.773
913.099	101.041
913.227	100.134
913.355	101.299
913.483	100.649
913.612	100.928
913.740	100.299
913.868	99.938
