90_70_90_Pol_at_750.00nm_cut_at_1179.00Y_01.dat
03.07.2023
11:27:47
cut middle at Y: 1179.00
top cursor: 1231 down cursor: 1127 mean of: 104 lines , 2560 datapoints
wavelength(nm)	intensity[arb. units]
585.996	10523.279
586.124	10318.154
586.252	10319.058
586.380	10327.240
586.508	10386.019
586.637	10487.692
586.765	10419.981
586.893	10465.154
587.021	10522.567
587.149	10523.385
587.277	10545.779
587.405	10570.769
587.533	10607.212
587.662	10671.144
587.790	10614.490
587.918	10618.808
588.046	10593.510
588.174	10635.221
588.302	10663.923
588.430	10634.596
588.558	10664.404
588.687	10721.058
588.815	10681.135
588.943	10730.596
589.071	10690.000
589.199	10706.606
589.327	10721.875
589.455	10788.096
589.583	10724.337
589.712	10738.298
589.840	10707.356
589.968	10734.663
590.096	10788.212
590.224	10730.471
590.352	10834.135
590.480	10729.317
590.608	10728.413
590.737	10765.077
590.865	10857.279
590.993	10718.635
591.121	10781.952
591.249	10775.971
591.377	10786.298
591.505	10865.096
591.633	10786.913
591.762	10787.596
591.890	10835.875
592.018	10921.856
592.146	10847.654
592.274	10828.663
592.402	10850.067
592.530	11002.240
592.658	10894.538
592.787	10936.308
592.915	10982.702
593.043	10878.125
593.171	10909.423
593.299	10934.846
593.427	10958.490
593.555	10949.125
593.683	11009.154
593.812	11020.279
593.940	11021.577
594.068	11044.269
594.196	11022.192
594.324	11092.837
594.452	11275.000
594.580	11171.365
594.708	11208.087
594.837	11190.548
594.965	11292.500
595.093	11230.942
595.221	11312.740
595.349	11299.654
595.477	11335.260
595.605	11365.250
595.733	11381.221
595.862	11373.010
595.990	11385.115
596.118	11468.077
596.246	11514.567
596.374	11434.212
596.502	11464.337
596.630	11498.654
596.758	11500.654
596.887	11523.990
597.015	11529.038
597.143	11545.019
597.271	11543.337
597.399	11620.817
597.527	11564.048
597.655	11570.308
597.783	11607.231
597.912	11618.827
598.040	11637.548
598.168	11595.788
598.296	11588.173
598.424	11771.038
598.552	11586.952
598.680	11620.346
598.808	11666.635
598.937	11604.308
599.065	11616.817
599.193	11650.779
599.321	11667.865
599.449	11635.615
599.577	11621.317
599.705	11640.577
599.833	11645.452
599.962	11606.510
600.090	11625.817
600.218	11612.471
600.346	11600.846
600.474	11597.154
600.602	11554.923
600.730	11590.212
600.858	11618.712
600.987	11692.096
601.115	11632.135
601.243	11734.433
601.371	11712.385
601.499	11730.683
601.627	11728.577
601.755	11709.385
601.883	11777.250
602.012	11645.000
602.140	11776.798
602.268	11778.356
602.396	11918.567
602.524	11779.481
602.652	11883.558
602.780	11861.317
602.908	11899.548
603.037	11954.865
603.165	11945.663
603.293	11985.144
603.421	12056.837
603.549	12024.942
603.677	12093.394
603.805	12123.962
603.933	12118.817
604.062	12191.875
604.190	12235.673
604.318	12317.481
604.446	12221.452
604.574	12359.269
604.702	12408.279
604.830	12364.019
604.958	12390.433
605.087	12462.808
605.215	12539.394
605.343	12590.721
605.471	12578.837
605.599	12587.490
605.727	12673.327
605.855	12695.317
605.983	12707.731
606.112	12773.327
606.240	12772.327
606.368	12771.096
606.496	12759.596
606.624	12851.615
606.752	12795.000
606.880	12855.856
607.008	12833.317
607.137	12864.144
607.265	12970.365
607.393	12904.615
607.521	12986.144
607.649	12901.471
607.777	12926.327
607.905	12962.596
608.033	12916.769
608.162	12923.471
608.290	12898.269
608.418	13056.952
608.546	12988.529
608.674	13020.837
608.802	12919.365
608.930	12959.663
609.058	12865.221
609.187	12921.260
609.315	12900.279
609.443	12894.337
609.571	13012.394
609.699	12867.202
609.827	12964.548
609.955	12922.635
610.083	12857.067
610.212	12829.635
610.340	12799.625
610.468	12864.587
610.596	12842.077
610.724	12792.769
610.852	12873.615
610.980	12859.721
611.108	12835.808
611.237	12804.356
611.365	12826.173
611.493	12802.683
611.621	12793.394
611.749	12799.529
611.877	12879.510
612.005	12843.423
612.133	12852.933
612.262	12816.606
612.390	12931.779
612.518	12934.212
612.646	12910.462
612.774	12939.385
612.902	12938.433
613.030	12942.615
613.158	12915.058
613.287	13028.606
613.415	12928.000
613.543	12990.837
613.671	12973.529
613.799	13014.538
613.927	13049.423
614.055	13048.442
614.183	13086.798
614.312	13086.192
614.440	13250.817
614.568	13166.183
614.696	13176.942
614.824	13187.163
614.952	13240.010
615.080	13236.154
615.208	13283.904
615.337	13365.529
615.465	13296.894
615.593	13374.885
615.721	13351.058
615.849	13427.846
615.977	13368.712
616.105	13415.760
616.233	13436.154
616.362	13472.356
616.490	13477.538
616.618	13560.500
616.746	13602.067
616.874	13571.596
617.002	13599.173
617.130	13621.413
617.258	13568.308
617.387	13620.683
617.515	13636.327
617.643	13572.317
617.771	13679.048
617.899	13655.587
618.027	13702.587
618.155	13738.029
618.283	13721.077
618.412	13709.548
618.540	13752.702
618.668	13747.173
618.796	13764.269
618.924	13679.913
619.052	13749.519
619.180	13697.933
619.308	13708.567
619.437	13728.721
619.565	13767.558
619.693	13666.788
619.821	13740.423
619.949	13710.663
620.077	13727.125
620.205	13766.538
620.333	13783.625
620.462	13673.644
620.590	13731.183
620.718	13748.712
620.846	13757.913
620.974	13739.740
621.102	13774.192
621.230	13723.067
621.358	13880.885
621.487	13718.423
621.615	13723.673
621.743	13651.990
621.871	13750.644
621.999	13647.231
622.127	13682.462
622.255	13667.231
622.383	13649.904
622.512	13632.567
622.640	13643.567
622.768	13684.317
622.896	13711.269
623.024	13687.221
623.152	13637.433
623.280	13703.981
623.408	13628.933
623.537	13668.837
623.665	13589.558
623.793	13650.875
623.921	13631.058
624.049	13618.615
624.177	13623.452
624.305	13580.644
624.433	13625.519
624.562	13629.288
624.690	13722.433
624.818	13511.644
624.946	13569.683
625.074	13516.212
625.202	13506.856
625.330	13548.740
625.458	13647.452
625.587	13519.337
625.715	13594.683
625.843	13564.904
625.971	13568.029
626.099	13538.971
626.227	13562.769
626.355	13489.163
626.483	13544.731
626.612	13532.885
626.740	13549.481
626.868	13510.856
626.996	13603.346
627.124	13521.904
627.252	13480.952
627.380	13531.981
627.508	13477.462
627.637	13533.029
627.765	13586.154
627.893	13537.817
628.021	13608.375
628.149	13523.221
628.277	13608.048
628.405	13533.202
628.533	13551.962
628.662	13527.923
628.790	13617.606
628.918	13561.500
629.046	13694.750
629.174	13547.346
629.302	13559.135
629.430	13496.510
629.558	13575.990
629.687	13542.038
629.815	13602.894
629.943	13665.731
630.071	13604.279
630.199	13599.442
630.327	13631.990
630.455	13672.365
630.583	13641.885
630.712	13629.240
630.840	13671.029
630.968	13643.000
631.096	13656.471
631.224	13643.154
631.352	13774.365
631.480	13672.010
631.608	13852.923
631.737	13658.135
631.865	13786.606
631.993	13722.933
632.121	13844.692
632.249	13732.990
632.377	13692.144
632.505	13708.221
632.633	13746.673
632.762	13681.394
632.890	13663.240
633.018	13695.317
633.146	13658.558
633.274	13676.587
633.402	13683.962
633.530	13633.010
633.658	13646.154
633.787	13623.067
633.915	13595.990
634.043	13602.731
634.171	13626.106
634.299	13620.587
634.427	13563.942
634.555	13786.442
634.683	13570.625
634.812	13543.087
634.940	13463.288
635.068	13452.971
635.196	13452.365
635.324	13434.635
635.452	13417.375
635.580	13501.644
635.708	13386.144
635.837	13371.971
635.965	13349.125
636.093	13307.760
636.221	13277.135
636.349	13196.250
636.477	13163.644
636.605	13228.019
636.733	13157.269
636.862	13113.587
636.990	13135.279
637.118	13096.933
637.246	13013.346
637.374	13146.115
637.502	12962.788
637.630	12922.135
637.758	12897.837
637.887	12846.548
638.015	12987.385
638.143	12894.250
638.271	12791.019
638.399	12829.115
638.527	12737.615
638.655	12738.212
638.783	12689.644
638.912	12750.240
639.040	12631.625
639.168	12607.990
639.296	12594.231
639.424	12630.673
639.552	12575.740
639.680	12562.673
639.808	12553.625
639.937	12502.837
640.065	12457.385
640.193	12484.404
640.321	12532.654
640.449	12487.269
640.577	12391.183
640.705	12440.115
640.833	12422.067
640.962	12476.250
641.090	12353.740
641.218	12324.837
641.346	12422.144
641.474	12342.942
641.602	12302.212
641.730	12305.221
641.858	12286.490
641.987	12283.183
642.115	12425.596
642.243	12306.490
642.371	12450.952
642.499	12233.048
642.627	12322.260
642.755	12236.654
642.883	12251.221
643.012	12220.471
643.140	12329.010
643.268	12274.413
643.396	12155.875
643.524	12242.596
643.652	12291.692
643.780	12168.635
643.908	12186.192
644.037	12272.721
644.165	12237.067
644.293	12343.462
644.421	12127.106
644.549	12183.490
644.677	12180.346
644.805	12159.471
644.933	12090.654
645.062	12160.663
645.190	12284.096
645.318	12149.346
645.446	12087.654
645.574	12069.837
645.702	12091.981
645.830	12097.933
645.958	12022.558
646.087	12029.125
646.215	11969.000
646.343	11991.885
646.471	12154.038
646.599	11965.163
646.727	11948.692
646.855	11933.606
646.983	11893.769
647.112	11990.029
647.240	11892.942
647.368	11924.683
647.496	11860.644
647.624	11877.394
647.752	11837.404
647.880	11775.423
648.008	11803.635
648.137	11854.769
648.265	11728.058
648.393	11823.567
648.521	11681.279
648.649	11814.135
648.777	11739.404
648.905	11677.346
649.033	11738.298
649.162	11581.606
649.290	11562.202
649.418	11520.712
649.546	11702.865
649.674	11502.731
649.802	11498.019
649.930	11422.548
650.058	11374.433
650.187	11432.894
650.315	11369.971
650.443	11366.010
650.571	11312.529
650.699	11261.298
650.827	11231.827
650.955	11207.942
651.083	11258.798
651.212	11171.817
651.340	11218.298
651.468	11111.212
651.596	11109.740
651.724	11078.212
651.852	11026.221
651.980	11058.712
652.108	11010.923
652.237	11006.933
652.365	10926.154
652.493	10920.231
652.621	10903.952
652.749	10872.250
652.877	10843.077
653.005	10853.365
653.133	10800.385
653.262	10744.462
653.390	10715.087
653.518	10828.365
653.646	10645.933
653.774	10628.740
653.902	10697.077
654.030	10644.269
654.158	10562.183
654.287	10590.913
654.415	10580.183
654.543	10585.750
654.671	10520.058
654.799	10498.567
654.927	10462.327
655.055	10430.606
655.183	10425.577
655.312	10413.067
655.440	10328.635
655.568	10346.606
655.696	10378.663
655.824	10300.856
655.952	10318.779
656.080	10219.529
656.208	10248.519
656.337	10258.837
656.465	10350.490
656.593	10172.337
656.721	10194.587
656.849	10247.673
656.977	10067.423
657.105	10082.308
657.233	10069.298
657.362	10115.212
657.490	10049.962
657.618	10011.337
657.746	9997.240
657.874	9928.971
658.002	9880.346
658.130	9825.856
658.258	9854.269
658.387	9768.510
658.515	9793.010
658.643	9722.067
658.771	9790.894
658.899	9679.260
659.027	9706.769
659.155	9697.442
659.283	9640.471
659.412	9603.125
659.540	9601.298
659.668	9627.154
659.796	9678.154
659.924	9591.433
660.052	9673.346
660.180	9562.875
660.308	9619.308
660.437	9596.298
660.565	9518.885
660.693	9425.163
660.821	9599.058
660.949	9416.221
661.077	9461.538
661.205	9532.115
661.333	9376.577
661.462	9332.202
661.590	9458.038
661.718	9303.827
661.846	9333.519
661.974	9272.423
662.102	9270.260
662.230	9298.865
662.358	9164.125
662.487	9203.538
662.615	9182.462
662.743	9185.760
662.871	9126.433
662.999	9053.942
663.127	9064.567
663.255	9043.442
663.383	9178.048
663.512	8972.375
663.640	9043.471
663.768	9052.000
663.896	8975.183
664.024	8954.481
664.152	8951.577
664.280	9015.885
664.408	8913.529
664.537	8852.346
664.665	8908.087
664.793	8872.058
664.921	8817.808
665.049	8877.644
665.177	8772.721
665.305	8806.625
665.433	8791.846
665.562	8912.962
665.690	8786.846
665.818	8886.779
665.946	8674.625
666.074	8688.827
666.202	8696.067
666.330	8631.510
666.458	9054.971
666.587	8611.327
666.715	8635.413
666.843	8579.173
666.971	8580.788
667.099	8589.096
667.227	8629.558
667.355	8615.885
667.483	8520.683
667.612	8565.798
667.740	8528.308
667.868	8477.106
667.996	8425.115
668.124	8506.885
668.252	8577.356
668.380	8419.769
668.508	8446.154
668.637	8396.385
668.765	8394.942
668.893	8401.135
669.021	8321.490
669.149	8392.269
669.277	8276.798
669.405	8408.942
669.533	8373.558
669.662	8273.240
669.790	8269.644
669.918	8283.221
670.046	8400.625
670.174	8182.596
670.302	8172.702
670.430	8114.817
670.558	8192.635
670.687	8280.269
670.815	8088.490
670.943	8123.538
671.071	8032.856
671.199	7980.240
671.327	8028.923
671.455	8018.423
671.583	7969.135
671.712	7948.462
671.840	7982.087
671.968	8088.712
672.096	8063.481
672.224	7869.115
672.352	7832.212
672.480	7768.279
672.608	7834.673
672.737	7791.413
672.865	7722.442
672.993	7741.952
673.121	7703.375
673.249	7664.183
673.377	7654.192
673.505	7629.692
673.633	7676.779
673.762	7575.096
673.890	7587.885
674.018	7587.029
674.146	7534.712
674.274	7498.913
674.402	7574.798
674.530	7506.615
674.658	7432.010
674.787	7419.731
674.915	7539.808
675.043	7375.144
675.171	7391.346
675.299	7301.942
675.427	7284.471
675.555	7291.308
675.683	7304.885
675.812	7233.692
675.940	7237.135
676.068	7153.356
676.196	7215.740
676.324	7136.394
676.452	7072.808
676.580	7063.365
676.708	7035.548
676.837	7038.173
676.965	7132.356
677.093	7148.356
677.221	6999.327
677.349	6947.356
677.477	7013.346
677.605	6910.683
677.733	6897.000
677.862	6867.058
677.990	6869.452
678.118	6919.260
678.246	6822.067
678.374	6854.087
678.502	6773.962
678.630	6730.615
678.758	6752.096
678.887	6856.288
679.015	6640.615
679.143	6599.808
679.271	6592.038
679.399	6630.712
679.527	6584.933
679.655	6666.731
679.783	6542.712
679.912	6515.067
680.040	6696.577
680.168	6488.356
680.296	6488.942
680.424	6480.308
680.552	6416.471
680.680	6399.654
680.808	6356.423
680.937	6344.894
681.065	6401.673
681.193	6314.192
681.321	6296.288
681.449	6346.356
681.577	6296.462
681.705	6259.923
681.833	6290.904
681.962	6242.923
682.090	6200.635
682.218	6209.990
682.346	6217.106
682.474	6162.000
682.602	6127.692
682.730	6190.048
682.858	6104.067
682.987	6106.587
683.115	6152.038
683.243	6094.163
683.371	6092.788
683.499	6035.490
683.627	6097.135
683.755	6034.490
683.883	6000.692
684.012	6034.615
684.140	5955.019
684.268	5959.702
684.396	6038.202
684.524	5918.962
684.652	5957.731
684.780	5954.029
684.908	5940.692
685.037	5929.096
685.165	5899.298
685.293	5953.750
685.421	5896.096
685.549	5871.769
685.677	5810.135
685.805	5896.558
685.933	5816.144
686.062	5845.721
686.190	5785.712
686.318	5784.058
686.446	5745.981
686.574	5708.644
686.702	5778.683
686.830	5686.221
686.958	5758.904
687.087	5658.240
687.215	5683.558
687.343	5688.990
687.471	5805.500
687.599	5590.077
687.727	5575.260
687.855	5568.010
687.983	5541.010
688.112	5599.519
688.240	5528.654
688.368	5555.423
688.496	5499.894
688.624	5462.183
688.752	5584.115
688.880	5443.519
689.008	5445.173
689.137	5450.394
689.265	5383.433
689.393	5404.058
689.521	5373.298
689.649	5467.692
689.777	5385.154
689.905	5423.625
690.033	5288.115
690.162	5280.952
690.290	5328.962
690.418	5245.096
690.546	5314.654
690.674	5277.769
690.802	5280.135
690.930	5251.192
691.058	5242.375
691.187	5160.135
691.315	5148.538
691.443	5167.433
691.571	5168.962
691.699	5104.933
691.827	5106.038
691.955	5092.029
692.083	5081.692
692.212	5064.683
692.340	5054.442
692.468	5083.596
692.596	5060.683
692.724	4988.712
692.852	5034.904
692.980	5020.798
693.108	5027.865
693.237	4947.856
693.365	4930.731
693.493	4907.615
693.621	4912.721
693.749	4834.029
693.877	4927.067
694.005	4831.817
694.133	4814.404
694.262	4894.837
694.390	4765.077
694.518	4794.346
694.646	4787.817
694.774	4708.038
694.902	4725.029
695.030	4701.606
695.158	4690.260
695.287	4698.779
695.415	4668.712
695.543	4664.375
695.671	4614.337
695.799	4720.731
695.927	4607.875
696.055	4598.010
696.183	4574.731
696.312	4720.596
696.440	4542.356
696.568	4564.875
696.696	4468.875
696.824	4463.702
696.952	4459.625
697.080	4466.500
697.208	4399.663
697.337	4406.875
697.465	4390.365
697.593	4341.183
697.721	4476.010
697.849	4322.192
697.977	4347.894
698.105	4377.635
698.233	4328.779
698.362	4275.144
698.490	4391.106
698.618	4238.471
698.746	4188.000
698.874	4281.904
699.002	4237.250
699.130	4243.327
699.258	4184.125
699.387	4119.510
699.515	4165.106
699.643	4180.923
699.771	4230.173
699.899	4115.692
700.027	4054.827
700.155	4124.933
700.283	4018.548
700.412	4050.077
700.540	4065.990
700.668	4110.567
700.796	3987.308
700.924	4006.760
701.052	4016.163
701.180	4003.346
701.308	3913.981
701.437	3899.471
701.565	3902.644
701.693	3916.202
701.821	4066.250
701.949	3844.442
702.077	3849.817
702.205	3929.519
702.333	3828.087
702.462	3788.923
702.590	3856.962
702.718	3757.327
702.846	3928.760
702.974	3721.808
703.102	3719.394
703.230	3749.317
703.358	3679.644
703.487	3677.471
703.615	3655.827
703.743	3631.231
703.871	3637.096
703.999	3638.538
704.127	3593.173
704.255	3569.337
704.383	3616.721
704.512	3637.375
704.640	3592.058
704.768	3640.500
704.896	3514.769
705.024	3462.240
705.152	3487.231
705.280	3524.615
705.408	3441.010
705.537	3430.279
705.665	3447.298
705.793	3413.548
705.921	3407.548
706.049	3360.510
706.177	3424.288
706.305	3340.587
706.433	3387.913
706.562	3350.779
706.690	3361.663
706.818	3342.942
706.946	3300.240
707.074	3270.837
707.202	3262.019
707.330	3267.510
707.458	3226.010
707.587	3195.952
707.715	3238.163
707.843	3238.490
707.971	3230.942
708.099	3163.846
708.227	3173.038
708.355	3158.875
708.483	3130.683
708.612	3143.106
708.740	3091.356
708.868	3080.615
708.996	3132.615
709.124	3124.115
709.252	3091.337
709.380	3091.644
709.508	3035.010
709.637	3062.837
709.765	3022.885
709.893	3063.192
710.021	2987.010
710.149	3078.538
710.277	2974.500
710.405	2971.760
710.533	2957.404
710.662	2936.135
710.790	3056.971
710.918	2922.625
711.046	2972.904
711.174	2902.827
711.302	2934.096
711.430	2889.587
711.558	2929.154
711.687	2912.587
711.815	2845.154
711.943	2839.596
712.071	2841.635
712.199	2856.471
712.327	2899.212
712.455	2795.548
712.583	2963.490
712.712	2807.202
712.840	2822.240
712.968	2773.615
713.096	2768.952
713.224	2742.606
713.352	2743.462
713.480	2680.490
713.608	2678.875
713.737	2675.942
713.865	2712.413
713.993	2672.913
714.121	2668.615
714.249	2643.538
714.377	2628.067
714.505	2604.942
714.633	2635.971
714.762	2611.337
714.890	2611.538
715.018	2594.596
715.146	2627.923
715.274	2573.298
715.402	2543.048
715.530	2566.077
715.658	2593.615
715.787	2557.885
715.915	2632.067
716.043	2537.356
716.171	2615.663
716.299	2511.913
716.427	2560.904
716.555	2478.029
716.683	2499.433
716.812	2493.529
716.940	2477.510
717.068	2470.644
717.196	2580.962
717.324	2479.115
717.452	2469.144
717.580	2505.365
717.708	2446.173
717.837	2453.404
717.965	2455.663
718.093	2447.452
718.221	2441.115
718.349	2463.221
718.477	2404.404
718.605	2452.308
718.733	2421.942
718.862	2434.317
718.990	2414.875
719.118	2429.260
719.246	2389.673
719.374	2381.808
719.502	2379.865
719.630	2385.481
719.758	2360.952
719.887	2338.769
720.015	2338.962
720.143	2342.894
720.271	2313.519
720.399	2327.923
720.527	2299.115
720.655	2317.779
720.783	2294.192
720.912	2288.337
721.040	2261.298
721.168	2283.577
721.296	2236.635
721.424	2249.048
721.552	2245.087
721.680	2216.183
721.808	2238.635
721.937	2224.635
722.065	2197.567
722.193	2199.644
722.321	2202.087
722.449	2177.365
722.577	2168.808
722.705	2145.077
722.833	2137.625
722.962	2135.115
723.090	2116.356
723.218	2103.288
723.346	2114.048
723.474	2119.135
723.602	2093.413
723.730	2092.221
723.858	2075.154
723.987	2086.913
724.115	2085.067
724.243	2063.183
724.371	2033.952
724.499	2062.683
724.627	2034.644
724.755	2029.077
724.883	2017.663
725.012	2011.096
725.140	2003.288
725.268	1991.981
725.396	1966.635
725.524	1979.452
725.652	1956.135
725.780	1947.712
725.908	1948.394
726.037	1921.769
726.165	1930.288
726.293	1921.288
726.421	1912.183
726.549	1917.779
726.677	1887.067
726.805	1887.558
726.933	1867.721
727.062	1878.183
727.190	1862.365
727.318	1845.490
727.446	1857.856
727.574	1838.558
727.702	1817.442
727.830	1829.077
727.958	1812.606
728.087	1819.260
728.215	1803.567
728.343	1790.990
728.471	1786.442
728.599	1787.837
728.727	1766.452
728.855	1774.385
728.983	1742.615
729.112	1742.298
729.240	1732.135
729.368	1723.846
729.496	1726.394
729.624	1726.990
729.752	1711.500
729.880	1715.510
730.008	1714.279
730.137	1696.240
730.265	1693.288
730.393	1684.288
730.521	1662.269
730.649	1668.952
730.777	1648.115
730.905	1652.885
731.033	1616.577
731.162	1628.567
731.290	1642.192
731.418	1640.096
731.546	1624.375
731.674	1622.346
731.802	1615.779
731.930	1611.894
732.058	1579.077
732.187	1580.413
732.315	1593.173
732.443	1589.702
732.571	1579.962
732.699	1573.260
732.827	1583.971
732.955	1575.712
733.083	1553.577
733.212	1551.356
733.340	1556.288
733.468	1538.827
733.596	1526.942
733.724	1525.058
733.852	1512.442
733.980	1502.202
734.108	1505.769
734.237	1508.654
734.365	1512.683
734.493	1485.115
734.621	1492.106
734.749	1484.490
734.877	1470.221
735.005	1463.548
735.133	1480.625
735.262	1468.885
735.390	1440.644
735.518	1452.596
735.646	1445.740
735.774	1453.644
735.902	1438.673
736.030	1433.875
736.158	1438.865
736.287	1437.538
736.415	1431.077
736.543	1405.712
736.671	1386.115
736.799	1405.000
736.927	1415.288
737.055	1405.173
737.183	1382.788
737.312	1377.779
737.440	1374.250
737.568	1373.000
737.696	1362.202
737.824	1371.106
737.952	1568.106
738.080	1355.837
738.208	1350.721
738.337	1332.808
738.465	1342.817
738.593	1328.144
738.721	1314.067
738.849	1332.558
738.977	1307.308
739.105	1328.769
739.233	1310.471
739.362	1304.731
739.490	1280.173
739.618	1292.029
739.746	1290.971
739.874	1277.077
740.002	1283.663
740.130	1248.740
740.258	1261.846
740.387	1280.663
740.515	1277.221
740.643	1236.452
740.771	1264.731
740.899	1237.606
741.027	1231.183
741.155	1241.500
741.283	1236.058
741.412	1236.731
741.540	1222.058
741.668	1204.231
741.796	1222.990
741.924	1205.288
742.052	1202.019
742.180	1211.731
742.308	1190.981
742.437	1188.750
742.565	1186.279
742.693	1184.144
742.821	1185.981
742.949	1172.875
743.077	1158.500
743.205	1168.163
743.333	1155.558
743.462	1157.327
743.590	1140.212
743.718	1143.635
743.846	1147.154
743.974	1161.144
744.102	1135.644
744.230	1128.846
744.358	1136.365
744.487	1115.019
744.615	1111.231
744.743	1112.375
744.871	1114.010
744.999	1102.365
745.127	1108.865
745.255	1082.673
745.383	1098.692
745.512	1080.433
745.640	1069.740
745.768	1079.510
745.896	1073.702
746.024	1067.481
746.152	1062.481
746.280	1057.423
746.408	1063.567
746.537	1042.875
746.665	1061.981
746.793	1041.548
746.921	1044.615
747.049	1040.933
747.177	1037.048
747.305	1037.808
747.433	1029.231
747.562	1025.894
747.690	1027.904
747.818	1005.913
747.946	1019.471
748.074	1002.221
748.202	1005.375
748.330	997.048
748.458	986.365
748.587	994.923
748.715	996.702
748.843	976.433
748.971	975.740
749.099	986.577
749.227	981.163
749.355	994.269
749.483	950.010
749.612	982.240
749.740	966.202
749.868	957.577
749.996	962.154
750.124	964.923
750.252	942.913
750.380	946.635
750.508	955.317
750.637	937.885
750.765	943.837
750.893	929.952
751.021	925.596
751.149	934.615
751.277	908.731
751.405	906.846
751.533	936.644
751.662	900.760
751.790	898.827
751.918	897.663
752.046	896.192
752.174	883.385
752.302	890.452
752.430	875.452
752.558	879.135
752.687	878.019
752.815	861.500
752.943	870.837
753.071	866.769
753.199	873.096
753.327	881.990
753.455	851.375
753.583	852.721
753.712	842.010
753.840	849.394
753.968	840.856
754.096	851.615
754.224	842.490
754.352	821.510
754.480	843.010
754.608	824.567
754.737	831.250
754.865	823.038
754.993	833.423
755.121	821.192
755.249	798.875
755.377	792.808
755.505	802.346
755.633	791.865
755.762	787.423
755.890	805.481
756.018	785.673
756.146	782.702
756.274	778.154
756.402	778.567
756.530	795.654
756.658	785.885
756.787	769.413
756.915	758.231
757.043	751.452
757.171	762.365
757.299	767.308
757.427	747.375
757.555	739.433
757.683	752.240
757.812	751.221
757.940	742.048
758.068	734.212
758.196	738.106
758.324	735.048
758.452	738.913
758.580	729.202
758.708	727.173
758.837	746.558
758.965	732.183
759.093	723.317
759.221	716.019
759.349	700.019
759.477	701.827
759.605	697.769
759.733	706.846
759.862	688.538
759.990	685.173
760.118	687.163
760.246	694.481
760.374	692.173
760.502	689.606
760.630	684.635
760.758	675.010
760.887	677.462
761.015	678.856
761.143	672.317
761.271	667.058
761.399	660.010
761.527	676.106
761.655	676.365
761.783	646.394
761.912	654.115
762.040	669.567
762.168	644.490
762.296	638.740
762.424	654.010
762.552	649.260
762.680	627.856
762.808	651.096
762.937	638.240
763.065	624.625
763.193	630.952
763.321	617.635
763.449	617.865
763.577	610.615
763.705	631.837
763.833	623.317
763.962	610.058
764.090	606.760
764.218	608.308
764.346	606.423
764.474	605.779
764.602	596.058
764.730	601.317
764.858	599.038
764.987	600.952
765.115	592.144
765.243	577.548
765.371	586.538
765.499	584.000
765.627	579.654
765.755	584.365
765.883	579.692
766.012	575.423
766.140	569.385
766.268	567.048
766.396	574.385
766.524	575.644
766.652	558.577
766.780	561.087
766.908	560.106
767.037	577.260
767.165	558.788
767.293	564.990
767.421	557.894
767.549	537.913
767.677	568.058
767.805	546.019
767.933	547.490
768.062	537.587
768.190	533.538
768.318	539.798
768.446	532.827
768.574	524.327
768.702	534.125
768.830	531.779
768.958	525.481
769.087	534.548
769.215	525.490
769.343	526.913
769.471	530.173
769.599	519.308
769.727	517.856
769.855	508.337
769.983	539.231
770.112	506.250
770.240	505.154
770.368	500.433
770.496	496.654
770.624	507.519
770.752	495.846
770.880	505.356
771.008	494.058
771.137	486.875
771.265	482.692
771.393	484.635
771.521	484.250
771.649	495.644
771.777	515.817
771.905	536.269
772.033	516.106
772.162	470.481
772.290	472.577
772.418	481.481
772.546	466.212
772.674	475.202
772.802	468.125
772.930	470.654
773.058	469.298
773.187	470.615
773.315	459.683
773.443	458.212
773.571	463.865
773.699	458.356
773.827	471.154
773.955	470.654
774.083	463.587
774.212	452.731
774.340	448.375
774.468	447.356
774.596	452.269
774.724	457.558
774.852	453.202
774.980	448.913
775.108	444.663
775.237	436.990
775.365	440.654
775.493	441.173
775.621	432.625
775.749	434.317
775.877	437.885
776.005	435.000
776.133	430.952
776.262	432.106
776.390	423.288
776.518	424.990
776.646	426.865
776.774	426.106
776.902	415.462
777.030	415.048
777.158	416.827
777.287	426.788
777.415	411.740
777.543	420.471
777.671	418.096
777.799	408.740
777.927	414.856
778.055	416.875
778.183	406.317
778.312	411.788
778.440	406.721
778.568	421.750
778.696	409.346
778.824	411.048
778.952	408.029
779.080	403.779
779.208	396.971
779.337	398.913
779.465	407.462
779.593	395.942
779.721	399.596
779.849	399.933
779.977	391.019
780.105	392.923
780.233	395.260
780.362	392.519
780.490	383.087
780.618	390.413
780.746	383.721
780.874	379.760
781.002	386.125
781.130	382.394
781.258	376.212
781.387	382.365
781.515	380.731
781.643	373.106
781.771	376.577
781.899	378.683
782.027	372.510
782.155	370.827
782.283	371.413
782.412	378.375
782.540	379.202
782.668	369.135
782.796	368.856
782.924	384.673
783.052	379.981
783.180	367.692
783.308	366.798
783.437	360.500
783.565	371.952
783.693	367.029
783.821	367.000
783.949	363.077
784.077	370.500
784.205	361.510
784.333	356.673
784.462	355.029
784.590	354.654
784.718	345.365
784.846	357.298
784.974	369.481
785.102	348.231
785.230	348.904
785.358	347.577
785.487	345.337
785.615	346.596
785.743	348.654
785.871	353.923
785.999	357.087
786.127	348.154
786.255	338.712
786.383	338.481
786.512	340.087
786.640	342.577
786.768	336.394
786.896	333.038
787.024	328.192
787.152	334.856
787.280	352.317
787.408	334.433
787.537	341.567
787.665	339.817
787.793	330.615
787.921	333.567
788.049	326.327
788.177	331.077
788.305	323.731
788.433	331.067
788.562	324.375
788.690	322.846
788.818	324.183
788.946	314.913
789.074	314.981
789.202	319.654
789.330	318.519
789.458	326.029
789.587	318.529
789.715	321.846
789.843	322.048
789.971	320.154
790.099	313.106
790.227	311.077
790.355	312.865
790.483	316.644
790.612	315.663
790.740	317.337
790.868	306.856
790.996	325.077
791.124	326.250
791.252	316.760
791.380	304.750
791.508	314.337
791.637	313.760
791.765	297.308
791.893	309.000
792.021	317.462
792.149	306.077
792.277	305.269
792.405	297.337
792.533	309.529
792.662	302.337
792.790	304.635
792.918	305.981
793.046	300.808
793.174	293.327
793.302	295.798
793.430	293.971
793.558	307.837
793.687	292.952
793.815	293.760
793.943	312.615
794.071	290.337
794.199	294.817
794.327	296.712
794.455	302.346
794.583	291.587
794.712	293.538
794.840	284.481
794.968	298.538
795.096	300.250
795.224	278.346
795.352	324.298
795.480	279.356
795.608	283.817
795.737	281.913
795.865	276.692
795.993	289.577
796.121	285.010
796.249	284.404
796.377	286.452
796.505	280.904
796.633	284.337
796.762	280.490
796.890	275.087
797.018	275.260
797.146	282.885
797.274	286.462
797.402	275.481
797.530	271.058
797.658	271.452
797.787	290.740
797.915	279.058
798.043	274.538
798.171	275.885
798.299	268.010
798.427	276.077
798.555	283.231
798.683	273.135
798.812	295.702
798.940	317.221
799.068	300.952
799.196	277.596
799.324	279.038
799.452	267.529
799.580	266.269
799.708	265.788
799.837	265.115
799.965	262.942
800.093	260.317
800.221	257.173
800.349	258.442
800.477	258.385
800.605	259.798
800.733	268.442
800.862	263.538
800.990	262.817
801.118	255.087
801.246	264.442
801.374	255.106
801.502	250.240
801.630	254.673
801.758	254.942
801.887	249.308
802.015	257.875
802.143	247.394
802.271	246.038
802.399	245.490
802.527	245.183
802.655	249.904
802.783	249.221
802.912	243.221
803.040	244.875
803.168	242.529
803.296	248.952
803.424	239.865
803.552	245.471
803.680	243.817
803.808	242.654
803.937	247.288
804.065	245.952
804.193	245.567
804.321	259.683
804.449	258.625
804.577	247.279
804.705	261.856
804.833	242.769
804.962	237.788
805.090	244.163
805.218	232.721
805.346	234.894
805.474	243.538
805.602	243.375
805.730	248.760
805.858	232.721
805.987	231.125
806.115	235.702
806.243	239.096
806.371	240.721
806.499	237.510
806.627	227.087
806.755	230.202
806.883	237.385
807.012	231.413
807.140	240.260
807.268	222.442
807.396	231.760
807.524	226.971
807.652	235.337
807.780	230.115
807.908	229.048
808.037	246.721
808.165	233.587
808.293	226.106
808.421	225.240
808.549	224.135
808.677	228.846
808.805	242.279
808.933	228.433
809.062	222.990
809.190	235.760
809.318	232.279
809.446	219.952
809.574	231.827
809.702	220.769
809.830	219.731
809.958	231.260
810.087	228.096
810.215	223.596
810.343	230.231
810.471	223.173
810.599	220.837
810.727	223.606
810.855	221.298
810.983	221.288
811.112	224.510
811.240	219.010
811.368	220.337
811.496	223.163
811.624	224.000
811.752	220.923
811.880	235.385
812.008	228.144
812.137	235.106
812.265	219.096
812.393	221.481
812.521	212.192
812.649	222.106
812.777	213.058
812.905	225.971
813.033	226.308
813.162	212.365
813.290	213.712
813.418	219.221
813.546	217.192
813.674	214.500
813.802	210.173
813.930	214.125
814.058	210.971
814.187	211.317
814.315	213.115
814.443	212.510
814.571	213.625
814.699	202.375
814.827	209.779
814.955	212.933
815.083	206.981
815.212	213.490
815.340	203.837
815.468	218.029
815.596	205.760
815.724	208.769
815.852	214.500
815.980	205.115
816.108	205.846
816.237	206.260
816.365	217.221
816.493	206.721
816.621	214.644
816.749	197.154
816.877	267.260
817.005	220.923
817.133	212.250
817.262	205.183
817.390	199.404
817.518	204.808
817.646	197.510
817.774	196.019
817.902	194.375
818.030	193.538
818.158	208.346
818.287	203.279
818.415	201.317
818.543	197.865
818.671	200.462
818.799	194.462
818.927	193.846
819.055	215.885
819.183	201.885
819.312	218.798
819.440	199.048
819.568	191.375
819.696	196.923
819.824	195.212
819.952	196.048
820.080	194.269
820.208	196.712
820.337	198.990
820.465	193.452
820.593	195.510
820.721	190.817
820.849	191.702
820.977	193.038
821.105	199.635
821.233	187.500
821.362	203.298
821.490	188.442
821.618	203.019
821.746	199.567
821.874	193.750
822.002	187.212
822.130	190.346
822.258	195.865
822.387	195.135
822.515	194.760
822.643	189.125
822.771	185.577
822.899	193.212
823.027	187.115
823.155	196.125
823.283	201.308
823.412	199.673
823.540	186.769
823.668	184.769
823.796	186.221
823.924	187.942
824.052	187.712
824.180	191.327
824.308	184.452
824.437	198.106
824.565	192.000
824.693	179.019
824.821	184.442
824.949	188.288
825.077	187.837
825.205	179.692
825.333	182.981
825.462	192.635
825.590	184.346
825.718	181.077
825.846	187.462
825.974	186.952
826.102	184.442
826.230	184.298
826.358	191.971
826.487	183.875
826.615	184.106
826.743	177.538
826.871	188.942
826.999	180.250
827.127	186.231
827.255	185.894
827.383	181.913
827.512	176.260
827.640	189.038
827.768	202.712
827.896	176.433
828.024	186.644
828.152	182.087
828.280	185.010
828.408	180.096
828.537	181.000
828.665	180.183
828.793	185.135
828.921	182.144
829.049	181.981
829.177	178.990
829.305	182.144
829.433	174.740
829.562	177.212
829.690	177.808
829.818	181.971
829.946	175.865
830.074	174.375
830.202	173.644
830.330	181.712
830.458	169.173
830.587	184.231
830.715	174.538
830.843	174.567
830.971	182.038
831.099	177.115
831.227	205.894
831.355	171.740
831.483	175.808
831.612	173.846
831.740	173.971
831.868	175.202
831.996	181.894
832.124	176.529
832.252	181.663
832.380	177.702
832.508	176.317
832.637	174.471
832.765	179.202
832.893	177.856
833.021	172.240
833.149	170.019
833.277	173.981
833.405	179.106
833.533	170.663
833.662	180.394
833.790	169.385
833.918	176.269
834.046	171.788
834.174	170.490
834.302	174.337
834.430	169.875
834.558	168.154
834.687	175.712
834.815	171.817
834.943	171.519
835.071	174.769
835.199	174.010
835.327	168.981
835.455	184.423
835.583	169.721
835.712	167.981
835.840	174.894
835.968	167.308
836.096	179.125
836.224	169.606
836.352	172.154
836.480	169.106
836.608	168.183
836.737	175.346
836.865	166.913
836.993	176.952
837.121	183.173
837.249	175.212
837.377	162.683
837.505	162.019
837.633	170.423
837.762	174.538
837.890	172.413
838.018	170.375
838.146	167.471
838.274	167.163
838.402	167.788
838.530	182.260
838.658	172.538
838.787	176.433
838.915	161.913
839.043	175.712
839.171	168.250
839.299	169.433
839.427	187.692
839.555	172.567
839.683	162.500
839.812	170.135
839.940	161.683
840.068	169.692
840.196	192.990
840.324	188.298
840.452	175.663
840.580	168.385
840.708	160.673
840.837	169.346
840.965	167.144
841.093	163.817
841.221	164.635
841.349	165.260
841.477	160.404
841.605	162.231
841.733	164.250
841.862	174.721
841.990	165.442
842.118	164.471
842.246	164.567
842.374	159.981
842.502	172.923
842.630	164.692
842.758	164.798
842.887	173.106
843.015	178.635
843.143	165.029
843.271	164.683
843.399	163.240
843.527	166.183
843.655	161.538
843.783	160.692
843.912	160.846
844.040	160.058
844.168	164.404
844.296	176.183
844.424	173.308
844.552	169.933
844.680	164.904
844.808	164.519
844.937	161.433
845.065	163.577
845.193	176.683
845.321	167.433
845.449	171.702
845.577	162.962
845.705	162.596
845.833	158.971
845.962	167.942
846.090	164.010
846.218	172.529
846.346	167.606
846.474	167.587
846.602	157.856
846.730	166.038
846.858	160.740
846.987	161.856
847.115	170.308
847.243	168.779
847.371	155.913
847.499	162.731
847.627	163.577
847.755	160.250
847.883	169.615
848.012	173.731
848.140	152.990
848.268	162.721
848.396	163.029
848.524	170.250
848.652	163.538
848.780	157.971
848.908	164.837
849.037	162.990
849.165	156.346
849.293	169.010
849.421	163.654
849.549	165.750
849.677	158.913
849.805	168.500
849.933	159.721
850.062	165.462
850.190	162.981
850.318	158.308
850.446	165.288
850.574	164.702
850.702	158.019
850.830	155.452
850.958	158.827
851.087	167.202
851.215	156.875
851.343	159.635
851.471	164.635
851.599	166.337
851.727	170.510
851.855	162.904
851.983	167.587
852.112	157.663
852.240	165.327
852.368	171.971
852.496	156.692
852.624	160.077
852.752	168.962
852.880	161.462
853.008	162.288
853.137	163.202
853.265	166.788
853.393	165.558
853.521	157.067
853.649	167.587
853.777	160.058
853.905	153.596
854.033	156.288
854.162	153.192
854.290	160.788
854.418	179.885
854.546	188.654
854.674	176.413
854.802	158.913
854.930	157.327
855.058	164.356
855.187	159.442
855.315	188.404
855.443	161.452
855.571	158.779
855.699	168.346
855.827	153.087
855.955	159.087
856.083	162.269
856.212	158.279
856.340	165.250
856.468	163.673
856.596	160.452
856.724	164.846
856.852	174.923
856.980	156.192
857.108	156.365
857.237	152.846
857.365	166.721
857.493	164.808
857.621	161.077
857.749	156.683
857.877	156.279
858.005	153.394
858.133	160.769
858.262	156.394
858.390	155.865
858.518	156.327
858.646	163.413
858.774	152.635
858.902	157.558
859.030	159.019
859.158	162.346
859.287	157.962
859.415	164.404
859.543	156.894
859.671	162.058
859.799	168.375
859.927	156.067
860.055	155.385
860.183	151.692
860.312	157.490
860.440	158.490
860.568	149.779
860.696	166.317
860.824	168.817
860.952	154.365
861.080	159.048
861.208	157.731
861.337	156.288
861.465	163.740
861.593	157.942
861.721	163.433
861.849	161.942
861.977	159.240
862.105	158.173
862.233	156.029
862.362	156.817
862.490	155.010
862.618	158.115
862.746	156.529
862.874	158.635
863.002	161.106
863.130	161.788
863.258	159.673
863.387	163.452
863.515	161.587
863.643	164.125
863.771	160.635
863.899	162.913
864.027	161.683
864.155	182.490
864.283	156.317
864.412	153.038
864.540	158.827
864.668	151.904
864.796	156.750
864.924	159.058
865.052	152.202
865.180	173.471
865.308	162.490
865.437	161.019
865.565	152.644
865.693	154.981
865.821	155.317
865.949	172.481
866.077	159.904
866.205	156.663
866.333	160.731
866.462	149.375
866.590	159.952
866.718	159.317
866.846	150.250
866.974	159.462
867.102	153.106
867.230	165.125
867.358	156.846
867.487	163.615
867.615	168.096
867.743	153.635
867.871	163.394
867.999	156.077
868.127	166.577
868.255	170.000
868.383	152.981
868.512	163.038
868.640	156.635
868.768	155.808
868.896	166.500
869.024	155.010
869.152	155.692
869.280	154.981
869.408	155.019
869.537	152.808
869.665	152.644
869.793	157.971
869.921	156.837
870.049	151.942
870.177	159.365
870.305	151.269
870.433	154.865
870.562	158.519
870.690	154.587
870.818	157.635
870.946	154.538
871.074	149.942
871.202	154.875
871.330	151.327
871.458	156.827
871.587	154.240
871.715	156.673
871.843	157.337
871.971	163.990
872.099	151.029
872.227	156.288
872.355	153.894
872.483	152.760
872.612	158.577
872.740	156.327
872.868	154.865
872.996	155.981
873.124	166.731
873.252	155.087
873.380	147.663
873.508	161.654
873.637	159.192
873.765	150.798
873.893	150.596
874.021	155.192
874.149	152.577
874.277	155.452
874.405	158.548
874.533	163.760
874.662	153.625
874.790	160.779
874.918	150.375
875.046	157.856
875.174	154.885
875.302	152.404
875.430	154.452
875.558	157.288
875.687	161.423
875.815	158.385
875.943	158.760
876.071	156.462
876.199	159.183
876.327	155.913
876.455	157.356
876.583	150.923
876.712	164.683
876.840	155.260
876.968	155.760
877.096	158.731
877.224	156.452
877.352	148.952
877.480	155.779
877.608	167.221
877.737	159.971
877.865	150.654
877.993	156.952
878.121	160.240
878.249	154.250
878.377	153.346
878.505	160.481
878.633	161.625
878.762	154.952
878.890	155.490
879.018	158.933
879.146	153.212
879.274	180.010
879.402	156.933
879.530	153.529
879.658	155.385
879.787	157.250
879.915	151.183
880.043	152.481
880.171	187.346
880.299	157.846
880.427	160.962
880.555	150.904
880.683	163.308
880.812	158.394
880.940	156.529
881.068	161.875
881.196	153.712
881.324	156.423
881.452	154.000
881.580	162.038
881.708	162.760
881.837	159.452
881.965	157.577
882.093	147.962
882.221	151.740
882.349	151.683
882.477	155.808
882.605	159.365
882.733	160.798
882.862	153.577
882.990	165.788
883.118	161.567
883.246	163.760
883.374	153.942
883.502	163.240
883.630	161.712
883.758	152.163
883.887	161.615
884.015	158.933
884.143	162.202
884.271	158.288
884.399	152.106
884.527	163.260
884.655	152.096
884.783	159.644
884.912	178.298
885.040	161.663
885.168	152.894
885.296	166.567
885.424	155.510
885.552	155.769
885.680	166.885
885.808	160.846
885.937	162.317
886.065	164.212
886.193	155.654
886.321	155.087
886.449	153.779
886.577	154.827
886.705	166.337
886.833	150.962
886.962	158.000
887.090	160.788
887.218	156.221
887.346	152.904
887.474	153.798
887.602	157.769
887.730	152.635
887.858	154.038
887.987	154.038
888.115	158.577
888.243	154.683
888.371	166.962
888.499	160.683
888.627	154.596
888.755	162.000
888.883	155.596
889.012	158.952
889.140	154.615
889.268	159.788
889.396	150.663
889.524	160.702
889.652	147.519
889.780	153.029
889.908	153.981
890.037	163.413
890.165	156.577
890.293	160.135
890.421	158.288
890.549	147.327
890.677	148.894
890.805	156.952
890.933	151.904
891.062	152.519
891.190	158.644
891.318	152.856
891.446	152.865
891.574	147.913
891.702	154.144
891.830	160.731
891.958	166.779
892.087	161.058
892.215	158.596
892.343	160.567
892.471	160.106
892.599	150.481
892.727	161.135
892.855	177.885
892.983	146.058
893.112	153.644
893.240	165.567
893.368	154.769
893.496	164.596
893.624	161.490
893.752	178.558
893.880	162.038
894.008	161.029
894.137	155.779
894.265	164.433
894.393	155.577
894.521	161.837
894.649	157.221
894.777	151.837
894.905	191.567
895.033	157.423
895.162	156.577
895.290	160.625
895.418	157.385
895.546	189.904
895.674	163.250
895.802	196.837
895.930	159.769
896.058	154.375
896.187	157.173
896.315	152.144
896.443	163.115
896.571	182.173
896.699	153.971
896.827	156.490
896.955	158.279
897.083	160.942
897.212	158.692
897.340	157.663
897.468	156.019
897.596	154.933
897.724	154.279
897.852	153.962
897.980	150.212
898.108	161.269
898.237	156.846
898.365	154.981
898.493	163.192
898.621	154.163
898.749	154.692
898.877	156.596
899.005	153.298
899.133	158.894
899.262	170.404
899.390	156.846
899.518	160.990
899.646	156.875
899.774	149.837
899.902	151.769
900.030	167.894
900.158	159.923
900.287	159.817
900.415	154.654
900.543	162.096
900.671	163.779
900.799	156.471
900.927	154.760
901.055	165.942
901.183	165.250
901.312	166.510
901.440	151.760
901.568	153.635
901.696	156.327
901.824	152.923
901.952	151.106
902.080	159.885
902.208	158.096
902.337	163.721
902.465	155.077
902.593	169.106
902.721	177.760
902.849	178.096
902.977	159.846
903.105	159.413
903.233	161.865
903.362	152.183
903.490	164.038
903.618	158.250
903.746	150.990
903.874	157.519
904.002	155.712
904.130	167.923
904.258	150.644
904.387	165.135
904.515	150.798
904.643	163.587
904.771	154.288
904.899	157.558
905.027	162.510
905.155	154.529
905.283	149.000
905.412	171.548
905.540	156.500
905.668	158.712
905.796	160.058
905.924	160.596
906.052	160.029
906.180	162.788
906.308	156.558
906.437	156.798
906.565	163.625
906.693	168.019
906.821	153.721
906.949	156.769
907.077	152.692
907.205	163.269
907.333	149.327
907.462	154.817
907.590	158.038
907.718	155.692
907.846	165.365
907.974	154.750
908.102	157.260
908.230	158.788
908.358	156.308
908.487	152.721
908.615	166.904
908.743	166.163
908.871	159.423
908.999	153.981
909.127	158.106
909.255	169.192
909.383	152.721
909.512	153.760
909.640	168.000
909.768	155.981
909.896	164.327
910.024	163.423
910.152	165.510
910.280	165.865
910.408	156.500
910.537	156.163
910.665	165.125
910.793	161.452
910.921	164.067
911.049	165.788
911.177	172.365
911.305	158.808
911.433	185.529
911.562	164.365
911.690	166.788
911.818	161.500
911.946	162.087
912.074	168.702
912.202	159.981
912.330	179.692
912.458	156.500
912.587	162.663
912.715	162.288
912.843	174.327
912.971	168.971
913.099	181.971
913.227	170.048
913.355	167.375
913.483	176.433
913.612	174.904
913.740	195.279
913.868	168.442
