Dunkelspektrum_at_750.00nm_cut_at_1184.50Y_01.dat
03.07.2023
10:42:14
cut middle at Y: 1184.50
top cursor: 1231 down cursor: 1138 mean of: 93 lines , 2560 datapoints
wavelength(nm)	intensity[arb. units]
585.996	192.989
586.124	157.935
586.252	167.333
586.380	166.355
586.508	149.065
586.637	162.215
586.765	150.957
586.893	154.602
587.021	155.505
587.149	159.376
587.277	164.280
587.405	155.075
587.533	156.871
587.662	151.946
587.790	148.366
587.918	154.376
588.046	148.624
588.174	159.667
588.302	144.129
588.430	157.570
588.558	147.516
588.687	150.065
588.815	166.624
588.943	156.140
589.071	157.613
589.199	148.366
589.327	148.935
589.455	157.817
589.583	153.108
589.712	147.183
589.840	146.387
589.968	153.011
590.096	151.559
590.224	153.118
590.352	174.774
590.480	151.505
590.608	145.892
590.737	163.581
590.865	150.097
590.993	148.624
591.121	152.882
591.249	145.989
591.377	151.570
591.505	147.409
591.633	152.226
591.762	146.204
591.890	154.935
592.018	156.516
592.146	152.785
592.274	154.355
592.402	141.172
592.530	145.882
592.658	143.075
592.787	154.043
592.915	164.462
593.043	136.054
593.171	148.086
593.299	140.312
593.427	149.495
593.555	145.806
593.683	143.054
593.812	140.086
593.940	142.022
594.068	153.398
594.196	142.656
594.324	144.473
594.452	146.409
594.580	140.075
594.708	144.914
594.837	147.527
594.965	154.484
595.093	138.452
595.221	142.839
595.349	145.258
595.477	147.462
595.605	155.882
595.733	143.290
595.862	145.860
595.990	148.204
596.118	141.828
596.246	146.720
596.374	158.032
596.502	160.108
596.630	144.473
596.758	148.247
596.887	139.860
597.015	151.172
597.143	150.129
597.271	149.559
597.399	140.441
597.527	155.290
597.655	139.538
597.783	143.441
597.912	142.118
598.040	148.183
598.168	145.462
598.296	139.688
598.424	150.280
598.552	142.054
598.680	139.828
598.808	138.903
598.937	142.452
599.065	158.656
599.193	148.763
599.321	143.355
599.449	140.398
599.577	139.688
599.705	147.946
599.833	148.978
599.962	142.785
600.090	141.269
600.218	145.677
600.346	144.484
600.474	135.839
600.602	142.978
600.730	147.624
600.858	146.237
600.987	135.516
601.115	140.978
601.243	145.753
601.371	147.333
601.499	136.441
601.627	138.656
601.755	141.226
601.883	141.366
602.012	145.140
602.140	141.323
602.268	143.839
602.396	138.978
602.524	148.763
602.652	141.667
602.780	138.462
602.908	140.237
603.037	152.785
603.165	138.032
603.293	138.796
603.421	163.387
603.549	146.602
603.677	156.011
603.805	133.968
603.933	143.645
604.062	143.204
604.190	143.892
604.318	139.882
604.446	135.645
604.574	148.290
604.702	134.699
604.830	139.645
604.958	136.946
605.087	145.000
605.215	140.527
605.343	159.108
605.471	153.645
605.599	140.323
605.727	146.054
605.855	143.860
605.983	154.710
606.112	151.699
606.240	137.258
606.368	139.505
606.496	146.581
606.624	139.387
606.752	136.538
606.880	140.409
607.008	135.978
607.137	150.194
607.265	141.581
607.393	143.624
607.521	153.000
607.649	153.710
607.777	139.473
607.905	145.688
608.033	138.753
608.162	143.656
608.290	147.118
608.418	146.312
608.546	150.043
608.674	140.194
608.802	141.215
608.930	141.892
609.058	134.505
609.187	140.710
609.315	140.538
609.443	142.172
609.571	150.022
609.699	138.667
609.827	147.656
609.955	142.656
610.083	138.462
610.212	151.710
610.340	137.753
610.468	143.204
610.596	147.796
610.724	136.968
610.852	141.570
610.980	147.312
611.108	142.935
611.237	146.581
611.365	142.763
611.493	136.280
611.621	140.430
611.749	137.172
611.877	147.409
612.005	139.333
612.133	136.677
612.262	150.247
612.390	142.527
612.518	140.677
612.646	134.161
612.774	141.656
612.902	140.172
613.030	161.538
613.158	140.484
613.287	145.484
613.415	138.925
613.543	153.054
613.671	136.441
613.799	138.312
613.927	140.753
614.055	145.570
614.183	134.688
614.312	139.387
614.440	138.215
614.568	140.688
614.696	139.118
614.824	134.591
614.952	159.559
615.080	136.269
615.208	146.237
615.337	146.828
615.465	139.366
615.593	138.204
615.721	134.247
615.849	147.097
615.977	141.914
616.105	136.882
616.233	135.753
616.362	147.527
616.490	147.763
616.618	142.935
616.746	140.301
616.874	145.011
617.002	139.280
617.130	138.118
617.258	134.269
617.387	137.903
617.515	144.108
617.643	132.957
617.771	138.871
617.899	139.258
618.027	142.140
618.155	140.559
618.283	141.796
618.412	138.462
618.540	135.946
618.668	138.366
618.796	148.935
618.924	140.376
619.052	133.817
619.180	154.452
619.308	139.796
619.437	139.054
619.565	133.441
619.693	134.839
619.821	138.333
619.949	137.398
620.077	135.237
620.205	137.548
620.333	134.430
620.462	136.527
620.590	155.000
620.718	134.656
620.846	136.011
620.974	162.237
621.102	153.871
621.230	158.495
621.358	140.183
621.487	135.591
621.615	142.258
621.743	142.763
621.871	136.366
621.999	133.753
622.127	151.075
622.255	143.624
622.383	137.151
622.512	138.839
622.640	138.194
622.768	140.172
622.896	136.237
623.024	139.903
623.152	129.989
623.280	145.538
623.408	142.000
623.537	140.086
623.665	141.344
623.793	154.022
623.921	138.280
624.049	140.978
624.177	139.129
624.305	144.645
624.433	140.108
624.562	138.366
624.690	140.183
624.818	157.925
624.946	145.656
625.074	139.301
625.202	135.527
625.330	139.710
625.458	155.280
625.587	139.409
625.715	138.957
625.843	136.043
625.971	142.452
626.099	142.645
626.227	139.677
626.355	139.892
626.483	145.376
626.612	136.118
626.740	133.849
626.868	142.774
626.996	140.258
627.124	138.355
627.252	159.355
627.380	135.054
627.508	140.968
627.637	138.183
627.765	134.172
627.893	140.226
628.021	134.269
628.149	137.591
628.277	140.376
628.405	145.785
628.533	136.839
628.662	137.516
628.790	134.366
628.918	139.043
629.046	130.699
629.174	148.032
629.302	135.022
629.430	144.484
629.558	153.968
629.687	133.688
629.815	138.097
629.943	137.258
630.071	142.323
630.199	144.194
630.327	152.763
630.455	148.161
630.583	158.430
630.712	135.774
630.840	141.495
630.968	138.183
631.096	131.290
631.224	134.118
631.352	152.409
631.480	150.946
631.608	140.968
631.737	136.634
631.865	138.989
631.993	136.753
632.121	154.968
632.249	146.742
632.377	146.527
632.505	137.796
632.633	144.871
632.762	138.022
632.890	142.720
633.018	137.699
633.146	146.559
633.274	155.935
633.402	135.839
633.530	136.796
633.658	138.731
633.787	150.355
633.915	144.828
634.043	139.108
634.171	135.409
634.299	140.871
634.427	139.140
634.555	141.699
634.683	145.849
634.812	142.398
634.940	137.258
635.068	127.817
635.196	135.108
635.324	143.484
635.452	141.118
635.580	135.742
635.708	133.301
635.837	138.065
635.965	141.720
636.093	141.505
636.221	145.591
636.349	134.742
636.477	138.914
636.605	164.108
636.733	143.978
636.862	144.333
636.990	147.312
637.118	146.441
637.246	147.258
637.374	135.806
637.502	142.903
637.630	142.957
637.758	138.151
637.887	135.538
638.015	136.054
638.143	194.161
638.271	135.495
638.399	139.387
638.527	141.753
638.655	141.946
638.783	138.613
638.912	150.280
639.040	136.194
639.168	137.720
639.296	138.892
639.424	138.140
639.552	141.043
639.680	139.645
639.808	126.495
639.937	148.538
640.065	135.011
640.193	134.516
640.321	130.581
640.449	142.032
640.577	132.215
640.705	150.914
640.833	138.710
640.962	147.194
641.090	143.914
641.218	141.849
641.346	142.183
641.474	140.473
641.602	138.753
641.730	143.172
641.858	134.398
641.987	131.269
642.115	138.097
642.243	142.989
642.371	139.086
642.499	132.172
642.627	145.280
642.755	133.860
642.883	134.570
643.012	138.452
643.140	139.946
643.268	132.742
643.396	132.602
643.524	141.882
643.652	134.065
643.780	135.742
643.908	141.570
644.037	138.247
644.165	136.699
644.293	138.441
644.421	142.161
644.549	137.161
644.677	139.118
644.805	138.258
644.933	137.817
645.062	135.441
645.190	142.355
645.318	137.645
645.446	142.129
645.574	134.215
645.702	142.344
645.830	137.043
645.958	143.828
646.087	137.946
646.215	139.441
646.343	143.323
646.471	137.172
646.599	131.796
646.727	140.269
646.855	141.774
646.983	127.097
647.112	151.613
647.240	138.129
647.368	132.602
647.496	149.215
647.624	141.871
647.752	134.968
647.880	143.441
648.008	136.720
648.137	147.806
648.265	136.710
648.393	131.849
648.521	131.645
648.649	134.968
648.777	135.688
648.905	138.344
649.033	154.871
649.162	133.075
649.290	136.828
649.418	134.602
649.546	131.022
649.674	137.258
649.802	147.581
649.930	143.226
650.058	138.925
650.187	138.258
650.315	139.301
650.443	134.247
650.571	135.409
650.699	134.946
650.827	137.699
650.955	135.978
651.083	140.258
651.212	157.043
651.340	130.946
651.468	133.151
651.596	136.570
651.724	138.161
651.852	148.140
651.980	145.409
652.108	145.269
652.237	144.527
652.365	135.505
652.493	130.989
652.621	152.398
652.749	133.204
652.877	149.473
653.005	136.710
653.133	136.129
653.262	135.688
653.390	139.516
653.518	134.301
653.646	135.570
653.774	137.527
653.902	136.151
654.030	154.989
654.158	136.290
654.287	139.946
654.415	141.387
654.543	148.495
654.671	137.108
654.799	138.398
654.927	136.731
655.055	142.946
655.183	134.731
655.312	143.925
655.440	138.624
655.568	137.645
655.696	138.892
655.824	139.043
655.952	137.871
656.080	131.882
656.208	139.247
656.337	152.054
656.465	169.613
656.593	138.226
656.721	131.828
656.849	145.376
656.977	137.462
657.105	141.978
657.233	140.581
657.362	138.645
657.490	133.968
657.618	133.204
657.746	143.387
657.874	132.140
658.002	143.538
658.130	138.548
658.258	141.237
658.387	139.806
658.515	128.656
658.643	142.656
658.771	141.591
658.899	142.237
659.027	141.903
659.155	135.613
659.283	138.516
659.412	130.892
659.540	136.871
659.668	145.280
659.796	137.172
659.924	139.366
660.052	148.172
660.180	136.505
660.308	134.935
660.437	142.828
660.565	137.645
660.693	139.796
660.821	137.763
660.949	140.237
661.077	137.194
661.205	135.903
661.333	127.409
661.462	141.129
661.590	137.849
661.718	153.645
661.846	133.011
661.974	141.484
662.102	142.290
662.230	152.290
662.358	134.688
662.487	144.172
662.615	138.774
662.743	138.183
662.871	139.194
662.999	134.301
663.127	139.323
663.255	143.204
663.383	142.731
663.512	138.161
663.640	135.226
663.768	136.957
663.896	146.258
664.024	135.011
664.152	145.849
664.280	137.043
664.408	141.473
664.537	140.011
664.665	153.806
664.793	146.366
664.921	135.774
665.049	136.183
665.177	130.613
665.305	139.022
665.433	134.839
665.562	150.301
665.690	136.215
665.818	139.269
665.946	141.043
666.074	153.430
666.202	137.258
666.330	138.043
666.458	657.925
666.587	145.495
666.715	150.398
666.843	142.839
666.971	142.817
667.099	137.473
667.227	148.763
667.355	146.613
667.483	136.097
667.612	138.968
667.740	131.355
667.868	142.849
667.996	130.742
668.124	138.882
668.252	142.667
668.380	155.591
668.508	146.398
668.637	137.925
668.765	135.548
668.893	140.366
669.021	148.441
669.149	133.828
669.277	139.118
669.405	144.140
669.533	141.419
669.662	142.301
669.790	143.602
669.918	132.032
670.046	135.839
670.174	135.860
670.302	140.204
670.430	143.312
670.558	139.097
670.687	138.731
670.815	131.763
670.943	142.194
671.071	134.204
671.199	129.505
671.327	140.882
671.455	164.688
671.583	135.129
671.712	136.022
671.840	142.161
671.968	138.022
672.096	137.247
672.224	132.032
672.352	138.269
672.480	145.591
672.608	135.806
672.737	139.043
672.865	141.151
672.993	142.022
673.121	137.194
673.249	130.935
673.377	135.301
673.505	134.043
673.633	141.785
673.762	132.645
673.890	136.742
674.018	134.409
674.146	137.989
674.274	132.667
674.402	135.430
674.530	145.075
674.658	136.484
674.787	140.312
674.915	140.366
675.043	138.118
675.171	147.570
675.299	142.667
675.427	134.914
675.555	140.946
675.683	146.763
675.812	140.624
675.940	149.925
676.068	141.355
676.196	135.688
676.324	151.151
676.452	144.914
676.580	136.645
676.708	146.538
676.837	140.946
676.965	143.366
677.093	138.215
677.221	139.624
677.349	138.387
677.477	160.140
677.605	135.548
677.733	145.376
677.862	130.591
677.990	131.237
678.118	141.581
678.246	148.710
678.374	140.301
678.502	142.054
678.630	138.624
678.758	156.548
678.887	141.602
679.015	142.753
679.143	136.043
679.271	151.484
679.399	147.946
679.527	135.731
679.655	135.065
679.783	136.742
679.912	143.323
680.040	140.774
680.168	139.172
680.296	142.656
680.424	137.774
680.552	146.409
680.680	152.161
680.808	142.968
680.937	134.989
681.065	133.462
681.193	137.656
681.321	137.796
681.449	137.774
681.577	138.763
681.705	144.914
681.833	136.763
681.962	145.570
682.090	144.849
682.218	132.978
682.346	133.387
682.474	145.215
682.602	138.613
682.730	139.129
682.858	134.398
682.987	161.161
683.115	138.441
683.243	136.183
683.371	137.409
683.499	132.355
683.627	137.323
683.755	133.226
683.883	144.527
684.012	143.065
684.140	142.677
684.268	138.398
684.396	139.871
684.524	134.441
684.652	141.441
684.780	137.656
684.908	149.935
685.037	135.452
685.165	139.452
685.293	148.785
685.421	143.118
685.549	136.817
685.677	150.366
685.805	134.344
685.933	139.108
686.062	143.151
686.190	173.258
686.318	136.473
686.446	138.591
686.574	135.129
686.702	137.656
686.830	137.355
686.958	157.495
687.087	141.860
687.215	134.290
687.343	135.968
687.471	147.462
687.599	138.688
687.727	137.817
687.855	139.194
687.983	137.613
688.112	138.527
688.240	144.161
688.368	137.140
688.496	142.968
688.624	142.161
688.752	133.333
688.880	138.409
689.008	140.495
689.137	143.043
689.265	133.022
689.393	145.430
689.521	147.505
689.649	151.376
689.777	135.935
689.905	136.602
690.033	138.237
690.162	138.290
690.290	139.312
690.418	132.796
690.546	142.247
690.674	149.194
690.802	145.301
690.930	134.409
691.058	139.570
691.187	135.086
691.315	152.409
691.443	151.043
691.571	138.000
691.699	138.828
691.827	138.806
691.955	140.430
692.083	143.548
692.212	131.785
692.340	142.570
692.468	141.312
692.596	143.258
692.724	134.387
692.852	147.817
692.980	136.753
693.108	134.376
693.237	146.118
693.365	141.785
693.493	137.688
693.621	136.398
693.749	142.516
693.877	142.957
694.005	147.409
694.133	144.097
694.262	149.387
694.390	137.022
694.518	133.097
694.646	139.860
694.774	137.086
694.902	138.817
695.030	137.011
695.158	136.989
695.287	134.871
695.415	157.860
695.543	131.376
695.671	140.656
695.799	143.323
695.927	146.376
696.055	135.720
696.183	133.172
696.312	138.624
696.440	142.301
696.568	148.462
696.696	146.258
696.824	141.849
696.952	135.376
697.080	150.258
697.208	136.914
697.337	133.763
697.465	136.602
697.593	143.677
697.721	138.387
697.849	140.570
697.977	136.269
698.105	143.634
698.233	134.161
698.362	146.183
698.490	165.731
698.618	140.785
698.746	139.645
698.874	135.796
699.002	139.054
699.130	143.968
699.258	159.505
699.387	138.054
699.515	141.774
699.643	146.656
699.771	147.161
699.899	138.226
700.027	150.935
700.155	134.215
700.283	133.258
700.412	149.237
700.540	138.989
700.668	152.323
700.796	139.312
700.924	143.871
701.052	137.097
701.180	154.785
701.308	130.849
701.437	142.280
701.565	141.688
701.693	131.204
701.821	146.871
701.949	141.290
702.077	132.172
702.205	135.237
702.333	144.204
702.462	149.989
702.590	139.108
702.718	136.054
702.846	142.151
702.974	143.796
703.102	137.516
703.230	139.839
703.358	130.462
703.487	144.151
703.615	138.022
703.743	133.204
703.871	139.312
703.999	137.462
704.127	135.398
704.255	137.925
704.383	131.957
704.512	139.237
704.640	135.817
704.768	130.903
704.896	139.280
705.024	147.344
705.152	144.118
705.280	134.892
705.408	134.785
705.537	132.989
705.665	141.172
705.793	145.430
705.921	131.602
706.049	133.398
706.177	130.398
706.305	137.624
706.433	139.151
706.562	137.591
706.690	127.290
706.818	136.817
706.946	140.892
707.074	141.710
707.202	138.387
707.330	135.699
707.458	151.366
707.587	133.054
707.715	137.108
707.843	146.527
707.971	136.108
708.099	137.742
708.227	137.387
708.355	145.957
708.483	139.323
708.612	140.323
708.740	134.054
708.868	137.957
708.996	129.409
709.124	149.204
709.252	137.656
709.380	165.699
709.508	135.548
709.637	143.344
709.765	140.710
709.893	141.624
710.021	134.516
710.149	143.903
710.277	139.043
710.405	148.000
710.533	140.419
710.662	132.720
710.790	141.323
710.918	130.118
711.046	140.946
711.174	136.516
711.302	131.860
711.430	135.022
711.558	138.269
711.687	140.376
711.815	132.860
711.943	136.484
712.071	131.806
712.199	140.968
712.327	153.398
712.455	144.688
712.583	135.935
712.712	145.118
712.840	142.946
712.968	133.161
713.096	143.667
713.224	147.043
713.352	142.860
713.480	138.484
713.608	132.785
713.737	132.527
713.865	135.645
713.993	138.312
714.121	146.183
714.249	135.237
714.377	144.613
714.505	142.118
714.633	140.344
714.762	135.882
714.890	149.763
715.018	136.344
715.146	142.075
715.274	142.258
715.402	138.892
715.530	138.194
715.658	138.516
715.787	140.817
715.915	145.183
716.043	135.280
716.171	134.914
716.299	133.269
716.427	134.892
716.555	149.613
716.683	139.602
716.812	143.785
716.940	144.849
717.068	138.677
717.196	139.204
717.324	147.806
717.452	133.409
717.580	149.462
717.708	131.172
717.837	132.753
717.965	130.462
718.093	138.828
718.221	138.419
718.349	131.634
718.477	140.366
718.605	127.333
718.733	131.011
718.862	145.667
718.990	130.677
719.118	148.559
719.246	141.387
719.374	140.473
719.502	140.323
719.630	137.172
719.758	138.925
719.887	138.000
720.015	138.312
720.143	153.075
720.271	140.118
720.399	141.667
720.527	136.731
720.655	134.462
720.783	134.075
720.912	134.957
721.040	132.710
721.168	143.527
721.296	130.344
721.424	153.538
721.552	138.344
721.680	132.022
721.808	156.473
721.937	135.634
722.065	142.280
722.193	138.054
722.321	141.763
722.449	141.763
722.577	135.667
722.705	139.968
722.833	139.355
722.962	134.720
723.090	136.419
723.218	126.968
723.346	142.000
723.474	135.645
723.602	135.323
723.730	142.505
723.858	136.720
723.987	150.903
724.115	141.452
724.243	146.871
724.371	137.731
724.499	138.280
724.627	135.548
724.755	136.011
724.883	134.839
725.012	145.505
725.140	152.000
725.268	134.505
725.396	132.957
725.524	143.871
725.652	153.301
725.780	132.753
725.908	142.839
726.037	135.043
726.165	143.000
726.293	141.667
726.421	136.978
726.549	137.645
726.677	146.419
726.805	138.925
726.933	150.441
727.062	151.688
727.190	136.925
727.318	133.581
727.446	145.237
727.574	136.796
727.702	134.613
727.830	151.978
727.958	135.344
728.087	133.333
728.215	142.387
728.343	140.602
728.471	142.366
728.599	138.828
728.727	131.968
728.855	153.860
728.983	134.151
729.112	133.839
729.240	136.065
729.368	144.849
729.496	151.140
729.624	147.731
729.752	140.237
729.880	141.226
730.008	138.065
730.137	139.548
730.265	148.043
730.393	151.419
730.521	145.376
730.649	151.742
730.777	146.667
730.905	160.258
731.033	136.774
731.162	146.688
731.290	152.753
731.418	152.140
731.546	153.871
731.674	158.462
731.802	143.688
731.930	161.667
732.058	137.742
732.187	151.387
732.315	161.581
732.443	146.226
732.571	142.151
732.699	130.849
732.827	145.806
732.955	143.280
733.083	145.065
733.212	139.409
733.340	150.860
733.468	147.065
733.596	145.914
733.724	143.140
733.852	146.785
733.980	145.452
734.108	138.946
734.237	142.118
734.365	136.237
734.493	137.720
734.621	140.914
734.749	147.430
734.877	140.312
735.005	152.495
735.133	145.763
735.262	147.065
735.390	144.806
735.518	156.914
735.646	157.140
735.774	159.796
735.902	138.935
736.030	141.301
736.158	145.667
736.287	166.226
736.415	153.151
736.543	140.344
736.671	136.839
736.799	148.699
736.927	147.280
737.055	146.419
737.183	142.731
737.312	145.097
737.440	150.247
737.568	137.559
737.696	146.634
737.824	150.387
737.952	402.978
738.080	151.226
738.208	143.753
738.337	143.140
738.465	149.022
738.593	150.237
738.721	141.473
738.849	162.559
738.977	148.570
739.105	167.043
739.233	152.860
739.362	140.871
739.490	135.774
739.618	149.559
739.746	144.247
739.874	152.495
740.002	147.624
740.130	141.978
740.258	142.075
740.387	154.022
740.515	146.806
740.643	136.398
740.771	144.828
740.899	151.484
741.027	149.806
741.155	150.484
741.283	138.925
741.412	158.785
741.540	147.140
741.668	141.634
741.796	154.097
741.924	152.290
742.052	145.591
742.180	150.323
742.308	150.462
742.437	151.731
742.565	151.602
742.693	154.312
742.821	159.054
742.949	147.753
743.077	149.892
743.205	147.860
743.333	143.860
743.462	158.817
743.590	141.376
743.718	140.710
743.846	146.000
743.974	169.430
744.102	150.032
744.230	142.183
744.358	163.129
744.487	144.398
744.615	138.376
744.743	146.000
744.871	142.656
744.999	142.570
745.127	151.731
745.255	139.355
745.383	143.398
745.512	142.333
745.640	142.957
745.768	149.505
745.896	140.258
746.024	141.172
746.152	148.172
746.280	138.473
746.408	154.204
746.537	139.871
746.665	159.290
746.793	145.925
746.921	139.602
747.049	145.280
747.177	158.946
747.305	154.376
747.433	155.892
747.562	144.419
747.690	150.978
747.818	142.935
747.946	148.269
748.074	140.581
748.202	143.720
748.330	143.194
748.458	136.860
748.587	153.247
748.715	143.495
748.843	140.710
748.971	137.452
749.099	149.968
749.227	140.828
749.355	168.065
749.483	139.075
749.612	156.968
749.740	156.333
749.868	144.301
749.996	142.344
750.124	156.570
750.252	145.065
750.380	143.204
750.508	163.688
750.637	149.634
750.765	148.731
750.893	152.882
751.021	144.194
751.149	153.785
751.277	145.000
751.405	142.430
751.533	166.097
751.662	143.280
751.790	144.699
751.918	154.086
752.046	142.118
752.174	149.409
752.302	143.247
752.430	134.978
752.558	139.054
752.687	137.796
752.815	142.161
752.943	145.946
753.071	146.570
753.199	151.699
753.327	180.806
753.455	137.108
753.583	144.925
753.712	145.043
753.840	160.333
753.968	147.656
754.096	140.710
754.224	146.860
754.352	143.011
754.480	154.882
754.608	140.806
754.737	155.720
754.865	159.527
754.993	162.613
755.121	160.753
755.249	140.473
755.377	136.247
755.505	150.484
755.633	142.774
755.762	148.710
755.890	162.398
756.018	152.667
756.146	140.624
756.274	142.581
756.402	142.860
756.530	172.194
756.658	146.194
756.787	151.538
756.915	139.344
757.043	138.882
757.171	149.527
757.299	153.333
757.427	143.699
757.555	138.860
757.683	146.935
757.812	160.602
757.940	149.323
758.068	137.419
758.196	141.613
758.324	144.699
758.452	152.828
758.580	150.258
758.708	144.366
758.837	163.753
758.965	159.118
759.093	152.226
759.221	139.710
759.349	145.871
759.477	139.452
759.605	143.452
759.733	155.688
759.862	137.817
759.990	137.495
760.118	141.161
760.246	152.140
760.374	151.774
760.502	149.591
760.630	136.774
760.758	140.903
760.887	146.978
761.015	146.226
761.143	146.258
761.271	144.226
761.399	139.613
761.527	154.710
761.655	153.849
761.783	132.172
761.912	141.774
762.040	164.258
762.168	141.366
762.296	141.312
762.424	158.183
762.552	146.226
762.680	134.613
762.808	165.097
762.937	157.828
763.065	144.968
763.193	146.839
763.321	145.333
763.449	144.860
763.577	136.677
763.705	161.989
763.833	156.430
763.962	146.387
764.090	143.237
764.218	147.269
764.346	148.742
764.474	145.914
764.602	140.161
764.730	156.763
764.858	157.366
764.987	152.613
765.115	147.344
765.243	140.925
765.371	144.323
765.499	141.011
765.627	145.946
765.755	152.796
765.883	153.129
766.012	148.355
766.140	141.011
766.268	142.914
766.396	147.796
766.524	154.871
766.652	150.376
766.780	149.602
766.908	151.699
767.037	162.989
767.165	148.839
767.293	155.194
767.421	151.946
767.549	145.462
767.677	162.409
767.805	146.892
767.933	151.462
768.062	141.011
768.190	144.452
768.318	140.366
768.446	145.108
768.574	141.925
768.702	144.462
768.830	145.226
768.958	142.430
769.087	149.602
769.215	152.054
769.343	151.409
769.471	149.839
769.599	143.634
769.727	137.753
769.855	141.086
769.983	171.484
770.112	146.484
770.240	137.957
770.368	141.312
770.496	138.774
770.624	148.161
770.752	138.817
770.880	150.280
771.008	140.796
771.137	136.968
771.265	135.892
771.393	135.495
771.521	134.280
771.649	151.484
771.777	181.194
771.905	201.570
772.033	181.495
772.162	131.312
772.290	138.968
772.418	142.441
772.546	137.860
772.674	141.258
772.802	136.247
772.930	140.742
773.058	136.624
773.187	139.774
773.315	133.645
773.443	139.172
773.571	139.624
773.699	131.215
773.827	147.323
773.955	154.344
774.083	140.742
774.212	137.398
774.340	139.237
774.468	138.699
774.596	140.925
774.724	143.731
774.852	147.226
774.980	135.398
775.108	133.667
775.237	132.753
775.365	134.559
775.493	138.151
775.621	133.376
775.749	139.043
775.877	143.968
776.005	141.065
776.133	133.043
776.262	138.925
776.390	135.742
776.518	129.247
776.646	142.161
776.774	135.376
776.902	136.570
777.030	130.172
777.158	131.774
777.287	139.473
777.415	129.215
777.543	133.355
777.671	138.699
777.799	138.290
777.927	138.849
778.055	137.957
778.183	131.108
778.312	131.054
778.440	130.022
778.568	150.527
778.696	130.742
778.824	135.387
778.952	136.785
779.080	139.054
779.208	134.430
779.337	135.796
779.465	144.602
779.593	135.591
779.721	142.720
779.849	137.011
779.977	135.656
780.105	136.817
780.233	139.000
780.362	141.237
780.490	131.247
780.618	136.237
780.746	132.215
780.874	132.989
781.002	140.129
781.130	135.183
781.258	136.839
781.387	132.699
781.515	137.065
781.643	130.645
781.771	135.366
781.899	145.398
782.027	135.914
782.155	137.634
782.283	130.914
782.412	144.419
782.540	139.591
782.668	141.376
782.796	134.978
782.924	150.763
783.052	150.043
783.180	136.462
783.308	134.495
783.437	133.161
783.565	142.226
783.693	139.570
783.821	135.452
783.949	138.161
784.077	135.108
784.205	139.011
784.333	136.075
784.462	143.355
784.590	135.656
784.718	127.290
784.846	138.828
784.974	145.065
785.102	134.194
785.230	135.624
785.358	132.269
785.487	134.763
785.615	133.656
785.743	136.763
785.871	145.538
785.999	148.989
786.127	146.516
786.255	132.559
786.383	132.473
786.512	132.656
786.640	136.591
786.768	130.581
786.896	133.742
787.024	128.344
787.152	134.312
787.280	153.559
787.408	136.215
787.537	146.086
787.665	142.237
787.793	131.495
787.921	136.882
788.049	132.301
788.177	134.957
788.305	132.441
788.433	137.247
788.562	135.183
788.690	133.699
788.818	139.129
788.946	130.452
789.074	126.774
789.202	131.355
789.330	132.753
789.458	136.710
789.587	131.645
789.715	141.118
789.843	135.591
789.971	139.667
790.099	130.290
790.227	133.054
790.355	136.957
790.483	136.505
790.612	136.323
790.740	139.860
790.868	133.892
790.996	145.022
791.124	149.968
791.252	140.538
791.380	134.484
791.508	137.763
791.637	142.452
791.765	129.032
791.893	138.677
792.021	143.000
792.149	135.699
792.277	136.129
792.405	128.720
792.533	140.968
792.662	135.151
792.790	140.495
792.918	149.430
793.046	132.968
793.174	136.527
793.302	138.645
793.430	132.323
793.558	147.559
793.687	140.387
793.815	129.409
793.943	148.108
794.071	129.108
794.199	129.108
794.327	140.774
794.455	145.108
794.583	147.720
794.712	135.688
794.840	132.011
794.968	143.226
795.096	146.978
795.224	127.613
795.352	180.935
795.480	132.441
795.608	128.796
795.737	137.258
795.865	130.000
795.993	138.000
796.121	131.183
796.249	133.742
796.377	138.699
796.505	137.054
796.633	141.398
796.762	132.204
796.890	134.548
797.018	136.946
797.146	139.409
797.274	145.731
797.402	131.065
797.530	132.538
797.658	132.538
797.787	151.871
797.915	142.183
798.043	130.333
798.171	139.484
798.299	129.280
798.427	140.548
798.555	152.118
798.683	137.849
798.812	170.645
798.940	190.161
799.068	171.129
799.196	143.570
799.324	150.161
799.452	127.882
799.580	133.699
799.708	136.796
799.837	138.677
799.965	134.430
800.093	133.194
800.221	133.720
800.349	134.344
800.477	138.140
800.605	136.742
800.733	129.699
800.862	142.376
800.990	137.731
801.118	130.505
801.246	134.043
801.374	143.161
801.502	134.237
801.630	137.473
801.758	138.860
801.887	131.645
802.015	133.591
802.143	129.430
802.271	137.108
802.399	131.559
802.527	126.430
802.655	132.914
802.783	135.677
802.912	132.495
803.040	130.215
803.168	130.140
803.296	143.441
803.424	129.817
803.552	138.677
803.680	135.527
803.808	136.398
803.937	131.753
804.065	136.720
804.193	137.462
804.321	147.430
804.449	152.473
804.577	139.215
804.705	156.290
804.833	133.817
804.962	135.355
805.090	134.688
805.218	132.828
805.346	130.828
805.474	141.925
805.602	138.742
805.730	153.430
805.858	128.559
805.987	134.645
806.115	134.258
806.243	145.871
806.371	134.978
806.499	137.495
806.627	129.581
806.755	135.688
806.883	139.247
807.012	130.183
807.140	144.452
807.268	127.452
807.396	137.903
807.524	129.129
807.652	142.871
807.780	135.677
807.908	134.710
808.037	154.204
808.165	144.828
808.293	132.108
808.421	137.140
808.549	135.323
808.677	136.323
808.805	148.624
808.933	137.645
809.062	134.430
809.190	146.591
809.318	138.677
809.446	129.774
809.574	144.376
809.702	138.398
809.830	129.538
809.958	145.581
810.087	136.452
810.215	135.849
810.343	140.237
810.471	140.731
810.599	129.817
810.727	138.645
810.855	132.624
810.983	140.333
811.112	140.419
811.240	133.710
811.368	131.118
811.496	141.301
811.624	140.527
811.752	140.118
811.880	146.140
812.008	140.516
812.137	149.849
812.265	135.849
812.393	143.333
812.521	132.151
812.649	141.742
812.777	130.011
812.905	133.806
813.033	142.753
813.162	138.785
813.290	130.215
813.418	140.774
813.546	134.430
813.674	134.978
813.802	131.742
813.930	133.849
814.058	130.882
814.187	138.237
814.315	136.247
814.443	132.258
814.571	137.688
814.699	130.183
814.827	133.720
814.955	138.527
815.083	130.989
815.212	135.441
815.340	129.946
815.468	143.882
815.596	131.914
815.724	138.892
815.852	144.398
815.980	134.731
816.108	133.538
816.237	140.323
816.365	149.903
816.493	135.290
816.621	145.323
816.749	132.774
816.877	205.495
817.005	157.398
817.133	144.151
817.262	141.247
817.390	133.581
817.518	144.183
817.646	130.731
817.774	129.151
817.902	128.075
818.030	131.817
818.158	137.839
818.287	135.570
818.415	135.484
818.543	131.613
818.671	135.806
818.799	133.699
818.927	130.914
819.055	148.677
819.183	140.505
819.312	152.355
819.440	138.720
819.568	132.462
819.696	135.075
819.824	135.946
819.952	136.763
820.080	137.634
820.208	135.484
820.337	142.140
820.465	137.860
820.593	135.903
820.721	133.484
820.849	133.247
820.977	138.774
821.105	136.430
821.233	130.129
821.362	139.301
821.490	128.860
821.618	141.452
821.746	139.710
821.874	135.516
822.002	126.172
822.130	136.097
822.258	141.978
822.387	139.312
822.515	139.527
822.643	133.882
822.771	132.419
822.899	143.183
823.027	130.355
823.155	140.140
823.283	148.183
823.412	147.731
823.540	132.968
823.668	131.097
823.796	139.591
823.924	129.914
824.052	133.925
824.180	140.656
824.308	135.548
824.437	150.151
824.565	140.914
824.693	130.419
824.821	132.301
824.949	138.151
825.077	136.344
825.205	131.613
825.333	137.505
825.462	139.366
825.590	135.495
825.718	131.903
825.846	139.258
825.974	136.258
826.102	139.269
826.230	140.774
826.358	148.462
826.487	131.774
826.615	137.430
826.743	130.591
826.871	144.796
826.999	132.430
827.127	135.817
827.255	135.914
827.383	134.613
827.512	131.903
827.640	139.129
827.768	155.419
827.896	127.753
828.024	136.409
828.152	132.871
828.280	133.473
828.408	131.462
828.537	139.484
828.665	131.409
828.793	136.204
828.921	134.602
829.049	136.688
829.177	134.301
829.305	137.720
829.433	134.000
829.562	134.204
829.690	137.032
829.818	138.032
829.946	132.634
830.074	132.290
830.202	131.860
830.330	126.839
830.458	124.140
830.587	143.108
830.715	132.290
830.843	133.882
830.971	140.527
831.099	137.441
831.227	155.237
831.355	129.409
831.483	135.763
831.612	136.247
831.740	130.591
831.868	132.667
831.996	145.366
832.124	131.473
832.252	139.484
832.380	135.172
832.508	135.538
832.637	133.226
832.765	143.538
832.893	135.355
833.021	129.656
833.149	129.505
833.277	137.828
833.405	141.140
833.533	133.065
833.662	138.516
833.790	133.409
833.918	137.860
834.046	131.968
834.174	131.441
834.302	137.860
834.430	129.677
834.558	129.892
834.687	140.495
834.815	139.731
834.943	134.731
835.071	139.882
835.199	136.398
835.327	132.516
835.455	144.624
835.583	133.753
835.712	132.581
835.840	138.247
835.968	128.871
836.096	144.387
836.224	129.441
836.352	139.774
836.480	130.097
836.608	130.624
836.737	137.280
836.865	130.516
836.993	142.000
837.121	147.946
837.249	137.075
837.377	133.634
837.505	128.215
837.633	131.215
837.762	137.194
837.890	136.581
838.018	138.022
838.146	132.602
838.274	132.140
838.402	132.323
838.530	151.204
838.658	135.258
838.787	141.796
838.915	129.086
839.043	146.151
839.171	132.978
839.299	138.817
839.427	157.247
839.555	143.409
839.683	132.634
839.812	132.839
839.940	131.280
840.068	136.301
840.196	162.290
840.324	148.656
840.452	137.677
840.580	132.839
840.708	127.194
840.837	133.978
840.965	134.914
841.093	129.806
841.221	137.129
841.349	134.237
841.477	130.054
841.605	128.538
841.733	133.710
841.862	143.624
841.990	136.527
842.118	131.011
842.246	134.710
842.374	127.957
842.502	138.989
842.630	131.581
842.758	128.925
842.887	140.065
843.015	146.548
843.143	129.032
843.271	134.108
843.399	138.581
843.527	135.634
843.655	131.624
843.783	136.129
843.912	129.570
844.040	128.849
844.168	134.376
844.296	146.194
844.424	143.559
844.552	142.538
844.680	137.129
844.808	133.054
844.937	133.828
845.065	133.312
845.193	149.591
845.321	135.817
845.449	138.968
845.577	134.237
845.705	131.226
845.833	131.247
845.962	143.430
846.090	135.570
846.218	145.054
846.346	142.097
846.474	138.656
846.602	130.452
846.730	137.710
846.858	132.753
846.987	131.720
847.115	142.667
847.243	144.344
847.371	128.280
847.499	131.796
847.627	136.989
847.755	135.366
847.883	141.699
848.012	144.774
848.140	130.516
848.268	135.376
848.396	138.011
848.524	138.473
848.652	132.516
848.780	130.452
848.908	139.215
849.037	137.054
849.165	130.516
849.293	138.677
849.421	134.011
849.549	137.559
849.677	133.333
849.805	144.387
849.933	132.495
850.062	139.806
850.190	135.075
850.318	132.720
850.446	136.849
850.574	129.548
850.702	128.871
850.830	129.763
850.958	134.516
851.087	137.484
851.215	130.806
851.343	134.849
851.471	137.892
851.599	139.441
851.727	143.290
851.855	137.978
851.983	141.419
852.112	132.516
852.240	146.677
852.368	149.258
852.496	133.613
852.624	136.452
852.752	140.710
852.880	142.204
853.008	132.355
853.137	139.516
853.265	139.828
853.393	136.183
853.521	133.774
853.649	141.194
853.777	134.484
853.905	130.355
854.033	135.892
854.162	131.108
854.290	136.656
854.418	153.172
854.546	170.129
854.674	157.516
854.802	137.570
854.930	130.667
855.058	138.581
855.187	135.699
855.315	147.828
855.443	138.247
855.571	136.183
855.699	143.172
855.827	131.290
855.955	134.065
856.083	134.570
856.212	138.753
856.340	140.839
856.468	139.204
856.596	134.290
856.724	139.333
856.852	156.237
856.980	132.667
857.108	130.806
857.237	128.323
857.365	137.538
857.493	143.634
857.621	139.108
857.749	130.957
857.877	132.796
858.005	132.065
858.133	138.194
858.262	131.129
858.390	134.161
858.518	128.441
858.646	142.301
858.774	131.688
858.902	130.441
859.030	139.183
859.158	137.129
859.287	138.247
859.415	135.237
859.543	132.581
859.671	135.570
859.799	135.441
859.927	132.903
860.055	134.043
860.183	131.000
860.312	130.957
860.440	138.462
860.568	129.247
860.696	145.839
860.824	143.409
860.952	132.925
861.080	138.935
861.208	135.398
861.337	135.946
861.465	146.806
861.593	139.548
861.721	141.108
861.849	138.989
861.977	134.366
862.105	137.430
862.233	135.828
862.362	132.140
862.490	132.398
862.618	138.559
862.746	133.419
862.874	137.226
863.002	138.473
863.130	143.871
863.258	139.688
863.387	141.656
863.515	138.624
863.643	144.194
863.771	139.978
863.899	137.376
864.027	143.871
864.155	169.538
864.283	134.656
864.412	130.645
864.540	135.581
864.668	130.484
864.796	135.151
864.924	135.290
865.052	131.129
865.180	152.215
865.308	136.054
865.437	138.387
865.565	131.043
865.693	134.430
865.821	132.409
865.949	153.247
866.077	138.290
866.205	135.710
866.333	142.000
866.462	130.849
866.590	140.495
866.718	143.140
866.846	132.957
866.974	139.656
867.102	130.226
867.230	141.258
867.358	136.925
867.487	142.344
867.615	147.215
867.743	132.892
867.871	145.204
867.999	136.226
868.127	148.731
868.255	151.204
868.383	129.000
868.512	138.742
868.640	134.140
868.768	133.022
868.896	145.097
869.024	131.634
869.152	137.247
869.280	131.753
869.408	136.602
869.537	131.215
869.665	132.011
869.793	140.409
869.921	135.129
870.049	127.086
870.177	137.570
870.305	130.065
870.433	136.645
870.562	138.323
870.690	135.806
870.818	140.419
870.946	131.925
871.074	129.301
871.202	136.011
871.330	127.860
871.458	137.258
871.587	139.108
871.715	136.613
871.843	136.441
871.971	141.989
872.099	128.301
872.227	138.333
872.355	133.806
872.483	129.925
872.612	140.581
872.740	135.269
872.868	136.946
872.996	138.570
873.124	142.667
873.252	134.258
873.380	129.774
873.508	144.075
873.637	143.462
873.765	133.140
873.893	133.602
874.021	136.957
874.149	134.656
874.277	135.129
874.405	142.656
874.533	144.538
874.662	133.054
874.790	140.376
874.918	133.688
875.046	131.946
875.174	133.280
875.302	132.409
875.430	132.366
875.558	141.774
875.687	140.613
875.815	138.398
875.943	141.978
876.071	137.161
876.199	139.194
876.327	136.226
876.455	135.742
876.583	134.634
876.712	143.054
876.840	140.108
876.968	135.548
877.096	134.667
877.224	135.720
877.352	126.054
877.480	134.172
877.608	146.484
877.737	138.968
877.865	128.763
877.993	137.129
878.121	142.516
878.249	133.720
878.377	136.151
878.505	141.860
878.633	139.645
878.762	129.548
878.890	139.462
879.018	139.839
879.146	134.108
879.274	163.247
879.402	140.613
879.530	134.817
879.658	137.892
879.787	139.323
879.915	134.376
880.043	134.419
880.171	173.882
880.299	137.387
880.427	138.774
880.555	129.495
880.683	140.796
880.812	134.108
880.940	129.624
881.068	141.903
881.196	135.903
881.324	135.151
881.452	131.742
881.580	139.935
881.708	131.247
881.837	138.688
881.965	134.828
882.093	130.882
882.221	130.398
882.349	131.892
882.477	133.301
882.605	134.892
882.733	141.290
882.862	133.000
882.990	146.409
883.118	143.097
883.246	147.376
883.374	136.419
883.502	144.806
883.630	146.140
883.758	134.645
883.887	141.419
884.015	134.849
884.143	141.065
884.271	138.129
884.399	131.978
884.527	141.978
884.655	136.763
884.783	139.613
884.912	162.968
885.040	145.957
885.168	135.215
885.296	151.978
885.424	135.699
885.552	132.978
885.680	150.602
885.808	143.785
885.937	143.978
886.065	141.538
886.193	135.430
886.321	137.290
886.449	137.398
886.577	136.591
886.705	148.301
886.833	125.269
886.962	138.237
887.090	140.258
887.218	137.462
887.346	134.903
887.474	135.968
887.602	136.290
887.730	129.430
887.858	135.484
887.987	136.032
888.115	140.140
888.243	134.398
888.371	147.387
888.499	135.140
888.627	132.978
888.755	147.774
888.883	138.032
889.012	140.419
889.140	136.860
889.268	143.366
889.396	129.452
889.524	142.677
889.652	130.430
889.780	131.903
889.908	137.538
890.037	144.054
890.165	131.366
890.293	141.022
890.421	137.344
890.549	128.054
890.677	130.613
890.805	139.871
890.933	135.753
891.062	135.634
891.190	141.269
891.318	134.495
891.446	137.194
891.574	130.634
891.702	135.624
891.830	133.548
891.958	147.108
892.087	148.796
892.215	142.065
892.343	140.839
892.471	140.817
892.599	133.075
892.727	142.882
892.855	160.409
892.983	129.032
893.112	134.065
893.240	148.430
893.368	135.710
893.496	147.000
893.624	137.591
893.752	158.075
893.880	133.796
894.008	142.849
894.137	136.505
894.265	140.484
894.393	135.645
894.521	142.989
894.649	141.118
894.777	130.677
894.905	183.344
895.033	136.667
895.162	141.054
895.290	144.720
895.418	139.559
895.546	174.172
895.674	142.656
895.802	184.258
895.930	141.860
896.058	136.226
896.187	139.258
896.315	134.914
896.443	148.258
896.571	160.108
896.699	139.548
896.827	136.785
896.955	139.946
897.083	146.548
897.212	138.796
897.340	134.925
897.468	140.591
897.596	138.968
897.724	137.925
897.852	134.935
897.980	131.677
898.108	148.194
898.237	140.688
898.365	138.559
898.493	146.204
898.621	137.957
898.749	139.204
898.877	138.441
899.005	138.742
899.133	141.656
899.262	154.806
899.390	139.441
899.518	146.108
899.646	135.699
899.774	133.570
899.902	138.430
900.030	151.258
900.158	139.484
900.287	143.204
900.415	137.946
900.543	142.097
900.671	146.968
900.799	136.914
900.927	138.140
901.055	150.742
901.183	149.699
901.312	150.839
901.440	136.065
901.568	137.258
901.696	139.957
901.824	139.355
901.952	137.849
902.080	148.839
902.208	144.645
902.337	148.667
902.465	139.366
902.593	155.925
902.721	167.495
902.849	158.269
902.977	144.731
903.105	143.129
903.233	139.376
903.362	136.613
903.490	150.086
903.618	142.753
903.746	136.763
903.874	142.355
904.002	143.495
904.130	155.849
904.258	134.054
904.387	149.860
904.515	138.280
904.643	146.151
904.771	139.462
904.899	140.581
905.027	146.022
905.155	140.828
905.283	136.462
905.412	150.989
905.540	140.301
905.668	144.161
905.796	146.215
905.924	144.667
906.052	146.430
906.180	148.774
906.308	141.667
906.437	144.591
906.565	149.817
906.693	153.495
906.821	138.925
906.949	145.925
907.077	136.290
907.205	147.968
907.333	136.376
907.462	139.129
907.590	143.602
907.718	143.376
907.846	150.892
907.974	142.613
908.102	143.129
908.230	145.570
908.358	140.086
908.487	140.516
908.615	155.323
908.743	154.892
908.871	149.376
908.999	141.118
909.127	140.849
909.255	153.376
909.383	143.720
909.512	142.581
909.640	157.978
909.768	143.624
909.896	152.548
910.024	150.720
910.152	157.581
910.280	154.978
910.408	144.118
910.537	141.290
910.665	151.699
910.793	152.462
910.921	143.075
911.049	155.581
911.177	159.968
911.305	146.860
911.433	143.570
911.562	155.634
911.690	150.860
911.818	150.290
911.946	146.871
912.074	152.419
912.202	146.946
912.330	167.333
912.458	147.839
912.587	148.161
912.715	150.581
912.843	160.914
912.971	156.806
913.099	167.806
913.227	156.398
913.355	157.151
913.483	162.677
913.612	161.968
913.740	178.882
913.868	155.032
