sample9v_at_750.00nm_cut_at_1060.50Y_01.dat
19.06.2023
11:14:50
cut middle at Y: 1060.50
top cursor: 1109 down cursor: 1012 mean of: 97 lines , 2560 datapoints
wavelength(nm)	intensity[arb. units]
585.996	756.423
586.124	730.938
586.252	716.433
586.380	721.216
586.508	716.175
586.637	727.732
586.765	730.010
586.893	726.454
587.021	730.423
587.149	730.041
587.277	725.505
587.405	733.639
587.533	730.361
587.662	737.464
587.790	731.722
587.918	731.351
588.046	739.649
588.174	736.619
588.302	737.660
588.430	730.763
588.558	730.289
588.687	730.660
588.815	739.351
588.943	743.526
589.071	731.247
589.199	735.433
589.327	731.031
589.455	727.062
589.583	729.567
589.712	733.660
589.840	735.485
589.968	736.546
590.096	739.340
590.224	739.505
590.352	741.711
590.480	737.371
590.608	737.948
590.737	729.155
590.865	734.165
590.993	740.773
591.121	745.392
591.249	737.175
591.377	733.041
591.505	738.897
591.633	735.814
591.762	739.381
591.890	737.206
592.018	742.278
592.146	746.649
592.274	744.835
592.402	744.392
592.530	741.897
592.658	743.340
592.787	742.876
592.915	743.113
593.043	745.000
593.171	744.835
593.299	752.763
593.427	746.804
593.555	750.639
593.683	744.598
593.812	751.381
593.940	748.165
594.068	756.938
594.196	751.887
594.324	758.165
594.452	763.918
594.580	757.206
594.708	765.907
594.837	768.443
594.965	772.485
595.093	780.948
595.221	767.990
595.349	779.000
595.477	776.505
595.605	786.577
595.733	787.763
595.862	776.186
595.990	778.124
596.118	782.031
596.246	792.052
596.374	783.196
596.502	794.536
596.630	795.289
596.758	787.247
596.887	792.361
597.015	791.577
597.143	788.031
597.271	785.412
597.399	789.784
597.527	783.835
597.655	794.031
597.783	789.330
597.912	785.557
598.040	795.144
598.168	790.206
598.296	790.340
598.424	792.876
598.552	790.134
598.680	788.464
598.808	792.062
598.937	799.969
599.065	791.598
599.193	788.515
599.321	778.794
599.449	791.866
599.577	784.794
599.705	781.680
599.833	796.021
599.962	779.423
600.090	792.031
600.218	785.557
600.346	790.124
600.474	789.567
600.602	792.113
600.730	788.495
600.858	790.763
600.987	801.361
601.115	784.268
601.243	787.454
601.371	787.866
601.499	801.134
601.627	787.278
601.755	796.010
601.883	804.711
602.012	803.763
602.140	799.588
602.268	804.247
602.396	805.577
602.524	797.124
602.652	812.649
602.780	815.155
602.908	813.103
603.037	817.082
603.165	825.082
603.293	832.268
603.421	828.320
603.549	818.845
603.677	825.608
603.805	827.763
603.933	833.165
604.062	829.062
604.190	841.732
604.318	844.918
604.446	849.062
604.574	840.165
604.702	844.680
604.830	844.845
604.958	848.866
605.087	862.443
605.215	859.835
605.343	850.485
605.471	872.402
605.599	862.464
605.727	863.144
605.855	861.330
605.983	866.763
606.112	872.268
606.240	875.309
606.368	879.567
606.496	872.495
606.624	868.856
606.752	867.309
606.880	880.495
607.008	876.979
607.137	869.093
607.265	872.062
607.393	885.268
607.521	881.515
607.649	867.814
607.777	869.979
607.905	882.887
608.033	883.237
608.162	881.546
608.290	881.763
608.418	883.701
608.546	876.557
608.674	881.454
608.802	878.835
608.930	887.412
609.058	884.629
609.187	870.361
609.315	887.753
609.443	880.258
609.571	887.485
609.699	868.113
609.827	874.907
609.955	869.588
610.083	867.608
610.212	862.876
610.340	871.072
610.468	875.381
610.596	873.412
610.724	880.010
610.852	874.649
610.980	877.402
611.108	876.515
611.237	876.608
611.365	872.814
611.493	875.392
611.621	877.660
611.749	882.918
611.877	892.289
612.005	875.897
612.133	875.433
612.262	880.155
612.390	886.165
612.518	891.485
612.646	883.959
612.774	886.485
612.902	889.711
613.030	894.299
613.158	898.969
613.287	892.732
613.415	901.155
613.543	905.948
613.671	906.041
613.799	901.784
613.927	904.433
614.055	903.052
614.183	910.784
614.312	902.113
614.440	905.742
614.568	915.845
614.696	921.124
614.824	913.433
614.952	921.309
615.080	922.320
615.208	925.763
615.337	920.660
615.465	918.464
615.593	930.093
615.721	938.330
615.849	925.361
615.977	937.165
616.105	919.629
616.233	935.990
616.362	938.979
616.490	929.227
616.618	930.454
616.746	934.278
616.874	934.567
617.002	945.227
617.130	945.144
617.258	935.608
617.387	937.794
617.515	939.691
617.643	947.845
617.771	937.423
617.899	936.330
618.027	938.165
618.155	937.753
618.283	945.567
618.412	940.753
618.540	944.825
618.668	949.351
618.796	949.371
618.924	941.856
619.052	945.691
619.180	945.134
619.308	954.835
619.437	944.289
619.565	950.557
619.693	941.351
619.821	940.165
619.949	945.990
620.077	942.928
620.205	941.227
620.333	941.474
620.462	949.175
620.590	952.021
620.718	951.804
620.846	939.546
620.974	944.309
621.102	948.546
621.230	945.454
621.358	946.598
621.487	944.216
621.615	945.000
621.743	944.464
621.871	939.021
621.999	939.608
622.127	938.361
622.255	935.639
622.383	947.144
622.512	948.763
622.640	936.258
622.768	940.598
622.896	945.814
623.024	936.196
623.152	945.794
623.280	933.443
623.408	936.773
623.537	943.948
623.665	948.515
623.793	936.021
623.921	937.464
624.049	937.876
624.177	937.278
624.305	939.330
624.433	942.794
624.562	943.722
624.690	937.515
624.818	929.670
624.946	935.113
625.074	933.814
625.202	942.804
625.330	931.763
625.458	930.732
625.587	936.680
625.715	927.186
625.843	926.175
625.971	936.258
626.099	938.216
626.227	930.289
626.355	928.196
626.483	938.784
626.612	928.856
626.740	930.866
626.868	932.041
626.996	931.649
627.124	937.134
627.252	927.371
627.380	931.732
627.508	932.082
627.637	927.340
627.765	938.825
627.893	942.794
628.021	934.577
628.149	941.897
628.277	931.701
628.405	941.928
628.533	935.773
628.662	940.814
628.790	940.567
628.918	935.186
629.046	942.072
629.174	933.794
629.302	940.464
629.430	943.577
629.558	935.454
629.687	945.268
629.815	938.639
629.943	947.278
630.071	941.907
630.199	940.897
630.327	942.742
630.455	941.392
630.583	945.959
630.712	952.351
630.840	939.567
630.968	953.598
631.096	957.495
631.224	946.897
631.352	942.340
631.480	950.948
631.608	958.381
631.737	953.299
631.865	952.598
631.993	955.546
632.121	953.454
632.249	948.732
632.377	946.010
632.505	944.196
632.633	947.866
632.762	946.134
632.890	953.918
633.018	959.072
633.146	946.082
633.274	955.557
633.402	942.454
633.530	935.021
633.658	951.186
633.787	941.495
633.915	948.515
634.043	943.093
634.171	939.691
634.299	944.485
634.427	941.753
634.555	946.969
634.683	944.546
634.812	932.660
634.940	943.897
635.068	935.897
635.196	922.990
635.324	948.340
635.452	942.247
635.580	931.557
635.708	922.845
635.837	932.412
635.965	927.216
636.093	923.423
636.221	923.381
636.349	921.866
636.477	915.010
636.605	921.907
636.733	913.031
636.862	908.639
636.990	915.093
637.118	922.227
637.246	907.938
637.374	907.845
637.502	907.732
637.630	905.763
637.758	911.454
637.887	911.680
638.015	901.155
638.143	914.021
638.271	894.258
638.399	902.381
638.527	894.340
638.655	895.928
638.783	903.258
638.912	892.794
639.040	896.474
639.168	891.866
639.296	893.660
639.424	898.021
639.552	896.763
639.680	888.722
639.808	896.464
639.937	883.722
640.065	895.979
640.193	889.804
640.321	890.680
640.449	891.423
640.577	887.856
640.705	880.959
640.833	884.155
640.962	886.804
641.090	889.825
641.218	892.897
641.346	883.041
641.474	881.412
641.602	882.567
641.730	881.454
641.858	883.340
641.987	891.113
642.115	880.247
642.243	877.918
642.371	890.134
642.499	885.124
642.627	882.041
642.755	885.165
642.883	889.082
643.012	878.351
643.140	884.433
643.268	879.268
643.396	878.268
643.524	879.247
643.652	877.680
643.780	884.309
643.908	876.206
644.037	873.546
644.165	879.010
644.293	877.495
644.421	875.010
644.549	889.010
644.677	883.887
644.805	882.216
644.933	870.959
645.062	879.268
645.190	875.629
645.318	874.485
645.446	880.371
645.574	889.701
645.702	880.299
645.830	879.856
645.958	883.103
646.087	876.928
646.215	877.536
646.343	886.454
646.471	876.619
646.599	870.402
646.727	881.804
646.855	858.216
646.983	874.557
647.112	877.371
647.240	876.845
647.368	866.680
647.496	872.371
647.624	869.392
647.752	866.144
647.880	866.010
648.008	867.794
648.137	861.000
648.265	857.577
648.393	860.041
648.521	865.979
648.649	849.113
648.777	854.876
648.905	858.175
649.033	852.299
649.162	854.753
649.290	849.216
649.418	850.175
649.546	845.155
649.674	848.464
649.802	845.887
649.930	845.392
650.058	833.639
650.187	838.351
650.315	845.031
650.443	837.299
650.571	841.804
650.699	834.753
650.827	843.649
650.955	830.588
651.083	837.113
651.212	826.660
651.340	829.351
651.468	831.000
651.596	831.629
651.724	830.660
651.852	826.969
651.980	819.247
652.108	827.526
652.237	824.433
652.365	823.186
652.493	816.557
652.621	819.794
652.749	821.619
652.877	812.608
653.005	817.907
653.133	819.237
653.262	811.784
653.390	804.186
653.518	807.175
653.646	809.443
653.774	803.660
653.902	818.031
654.030	806.907
654.158	805.247
654.287	804.237
654.415	794.330
654.543	801.320
654.671	796.155
654.799	798.227
654.927	797.557
655.055	787.577
655.183	786.423
655.312	790.330
655.440	787.990
655.568	783.289
655.696	781.464
655.824	794.443
655.952	788.701
656.080	781.722
656.208	790.515
656.337	785.763
656.465	781.423
656.593	785.082
656.721	781.278
656.849	784.804
656.977	775.299
657.105	778.732
657.233	770.454
657.362	776.505
657.490	769.629
657.618	767.052
657.746	767.031
657.874	770.371
658.002	774.268
658.130	765.969
658.258	770.835
658.387	769.289
658.515	758.536
658.643	760.608
658.771	766.010
658.899	754.546
659.027	763.216
659.155	767.134
659.283	761.773
659.412	756.639
659.540	756.351
659.668	754.969
659.796	746.082
659.924	754.753
660.052	746.082
660.180	744.928
660.308	748.144
660.437	741.619
660.565	741.670
660.693	738.959
660.821	733.691
660.949	737.691
661.077	736.227
661.205	737.021
661.333	735.093
661.462	731.691
661.590	735.866
661.718	729.526
661.846	729.773
661.974	731.289
662.102	728.000
662.230	734.268
662.358	733.835
662.487	732.948
662.615	719.959
662.743	732.361
662.871	723.948
662.999	725.835
663.127	723.845
663.255	729.959
663.383	722.340
663.512	725.165
663.640	728.938
663.768	716.299
663.896	725.227
664.024	716.742
664.152	718.722
664.280	721.165
664.408	712.928
664.537	709.825
664.665	719.505
664.793	714.278
664.921	716.330
665.049	718.866
665.177	719.918
665.305	717.371
665.433	704.485
665.562	716.010
665.690	708.876
665.818	706.649
665.946	709.474
666.074	709.361
666.202	713.567
666.330	703.680
666.458	708.608
666.587	712.794
666.715	706.763
666.843	704.340
666.971	709.227
667.099	715.392
667.227	712.289
667.355	701.361
667.483	711.804
667.612	700.794
667.740	700.505
667.868	699.474
667.996	703.124
668.124	700.155
668.252	701.990
668.380	699.794
668.508	712.165
668.637	695.680
668.765	700.402
668.893	702.711
669.021	699.825
669.149	698.454
669.277	691.732
669.405	697.330
669.533	694.423
669.662	702.928
669.790	691.546
669.918	691.237
670.046	687.505
670.174	684.722
670.302	692.979
670.430	678.052
670.558	689.897
670.687	682.649
670.815	675.866
670.943	680.639
671.071	684.052
671.199	676.052
671.327	681.247
671.455	676.753
671.583	672.907
671.712	672.227
671.840	681.299
671.968	672.948
672.096	668.351
672.224	659.711
672.352	668.206
672.480	660.907
672.608	664.825
672.737	659.804
672.865	659.773
672.993	655.928
673.121	662.557
673.249	657.113
673.377	649.866
673.505	651.175
673.633	645.773
673.762	649.649
673.890	653.433
674.018	642.113
674.146	642.835
674.274	642.784
674.402	641.660
674.530	639.186
674.658	640.052
674.787	635.196
674.915	633.701
675.043	633.000
675.171	637.907
675.299	623.134
675.427	625.680
675.555	629.546
675.683	622.031
675.812	616.959
675.940	614.258
676.068	617.062
676.196	618.732
676.324	611.866
676.452	620.773
676.580	615.113
676.708	610.175
676.837	616.557
676.965	609.629
677.093	609.928
677.221	601.144
677.349	600.072
677.477	606.979
677.605	599.825
677.733	602.515
677.862	601.505
677.990	600.124
678.118	597.134
678.246	590.433
678.374	592.588
678.502	598.124
678.630	586.649
678.758	590.588
678.887	589.784
679.015	591.814
679.143	585.598
679.271	581.278
679.399	578.289
679.527	590.608
679.655	586.247
679.783	580.082
679.912	577.763
680.040	572.680
680.168	578.660
680.296	568.557
680.424	571.598
680.552	578.515
680.680	572.691
680.808	567.423
680.937	572.361
681.065	569.186
681.193	576.021
681.321	577.031
681.449	565.330
681.577	569.485
681.705	565.412
681.833	564.443
681.962	569.897
682.090	569.515
682.218	567.155
682.346	566.144
682.474	564.794
682.602	564.979
682.730	567.289
682.858	557.845
682.987	562.474
683.115	553.608
683.243	561.330
683.371	557.639
683.499	557.691
683.627	559.845
683.755	555.897
683.883	558.082
684.012	555.021
684.140	556.144
684.268	555.464
684.396	547.701
684.524	549.722
684.652	558.495
684.780	558.041
684.908	554.763
685.037	554.351
685.165	552.351
685.293	554.278
685.421	555.474
685.549	554.814
685.677	549.186
685.805	548.278
685.933	556.557
686.062	550.268
686.190	549.021
686.318	552.464
686.446	551.928
686.574	550.918
686.702	547.876
686.830	544.959
686.958	546.897
687.087	549.165
687.215	538.918
687.343	544.835
687.471	548.619
687.599	539.247
687.727	539.753
687.855	545.309
687.983	539.660
688.112	536.856
688.240	534.619
688.368	542.134
688.496	536.608
688.624	539.216
688.752	538.082
688.880	536.216
689.008	529.031
689.137	534.258
689.265	538.691
689.393	535.381
689.521	527.443
689.649	528.320
689.777	529.680
689.905	530.361
690.033	529.474
690.162	527.887
690.290	530.608
690.418	524.175
690.546	527.124
690.674	525.402
690.802	514.773
690.930	519.021
691.058	522.649
691.187	515.072
691.315	521.227
691.443	522.361
691.571	518.856
691.699	513.588
691.827	512.320
691.955	509.876
692.083	512.495
692.212	506.485
692.340	515.072
692.468	507.711
692.596	504.680
692.724	511.804
692.852	502.567
692.980	497.732
693.108	498.258
693.237	499.598
693.365	501.340
693.493	495.567
693.621	501.340
693.749	494.856
693.877	496.546
694.005	492.825
694.133	495.763
694.262	495.021
694.390	495.196
694.518	488.289
694.646	491.825
694.774	484.557
694.902	488.072
695.030	498.423
695.158	484.557
695.287	488.526
695.415	479.216
695.543	487.515
695.671	485.165
695.799	475.134
695.927	478.381
696.055	477.010
696.183	482.454
696.312	476.144
696.440	474.660
696.568	477.000
696.696	475.433
696.824	469.062
696.952	471.371
697.080	469.505
697.208	474.794
697.337	465.938
697.465	470.804
697.593	463.289
697.721	464.866
697.849	464.804
697.977	464.691
698.105	463.227
698.233	464.557
698.362	459.557
698.490	464.845
698.618	458.907
698.746	455.247
698.874	456.979
699.002	461.309
699.130	459.742
699.258	459.062
699.387	451.794
699.515	449.454
699.643	457.072
699.771	451.062
699.899	447.062
700.027	452.247
700.155	448.619
700.283	447.598
700.412	437.825
700.540	445.186
700.668	440.392
700.796	443.268
700.924	437.701
701.052	438.660
701.180	439.289
701.308	437.649
701.437	438.216
701.565	439.082
701.693	437.258
701.821	433.546
701.949	433.268
702.077	428.515
702.205	437.010
702.333	428.897
702.462	425.959
702.590	421.938
702.718	420.907
702.846	420.515
702.974	422.897
703.102	421.773
703.230	425.866
703.358	417.155
703.487	420.082
703.615	416.134
703.743	414.196
703.871	414.052
703.999	409.835
704.127	409.454
704.255	408.938
704.383	409.701
704.512	403.402
704.640	404.711
704.768	404.113
704.896	402.536
705.024	401.577
705.152	398.515
705.280	402.031
705.408	399.072
705.537	400.196
705.665	394.959
705.793	392.206
705.921	387.639
706.049	389.918
706.177	387.124
706.305	393.402
706.433	390.577
706.562	386.371
706.690	380.021
706.818	386.052
706.946	385.309
707.074	375.495
707.202	377.515
707.330	377.732
707.458	378.041
707.587	380.948
707.715	376.402
707.843	375.845
707.971	378.320
708.099	372.990
708.227	371.340
708.355	373.113
708.483	375.680
708.612	368.577
708.740	370.856
708.868	371.454
708.996	368.938
709.124	371.216
709.252	366.124
709.380	364.660
709.508	364.794
709.637	364.330
709.765	359.082
709.893	355.979
710.021	355.691
710.149	361.031
710.277	361.433
710.405	357.897
710.533	358.351
710.662	353.103
710.790	354.938
710.918	354.464
711.046	355.103
711.174	361.856
711.302	349.381
711.430	354.515
711.558	357.443
711.687	351.959
711.815	348.227
711.943	348.732
712.071	350.866
712.199	346.082
712.327	345.082
712.455	347.649
712.583	342.124
712.712	346.567
712.840	338.711
712.968	342.619
713.096	348.052
713.224	345.237
713.352	343.175
713.480	336.722
713.608	337.175
713.737	340.402
713.865	336.577
713.993	335.753
714.121	335.082
714.249	337.701
714.377	336.567
714.505	335.258
714.633	332.660
714.762	331.113
714.890	335.113
715.018	334.216
715.146	330.186
715.274	336.299
715.402	330.639
715.530	330.887
715.658	328.412
715.787	331.103
715.915	325.742
716.043	323.835
716.171	328.021
716.299	327.845
716.427	324.021
716.555	323.175
716.683	321.722
716.812	326.948
716.940	327.825
717.068	313.536
717.196	323.351
717.324	315.938
717.452	321.196
717.580	317.186
717.708	313.938
717.837	314.546
717.965	314.546
718.093	316.938
718.221	310.206
718.349	310.330
718.477	312.536
718.605	313.505
718.733	310.485
718.862	309.526
718.990	305.742
719.118	310.165
719.246	308.907
719.374	306.309
719.502	310.546
719.630	302.649
719.758	302.423
719.887	307.361
720.015	304.433
720.143	303.124
720.271	307.454
720.399	299.412
720.527	297.536
720.655	303.392
720.783	296.742
720.912	295.948
721.040	295.557
721.168	297.371
721.296	296.082
721.424	297.474
721.552	290.608
721.680	290.361
721.808	295.990
721.937	287.423
722.065	288.330
722.193	289.732
722.321	288.876
722.449	286.052
722.577	287.052
722.705	282.392
722.833	279.835
722.962	285.515
723.090	283.186
723.218	280.948
723.346	282.021
723.474	287.289
723.602	279.701
723.730	275.619
723.858	276.691
723.987	277.804
724.115	271.804
724.243	273.825
724.371	273.629
724.499	278.000
724.627	272.072
724.755	270.876
724.883	271.598
725.012	268.742
725.140	266.639
725.268	272.165
725.396	267.268
725.524	272.082
725.652	264.753
725.780	264.021
725.908	257.598
726.037	262.711
726.165	263.711
726.293	254.794
726.421	258.330
726.549	261.680
726.677	262.557
726.805	260.567
726.933	251.845
727.062	250.856
727.190	258.608
727.318	254.804
727.446	254.340
727.574	257.010
727.702	255.629
727.830	249.392
727.958	249.134
728.087	251.289
728.215	249.711
728.343	246.124
728.471	255.155
728.599	246.784
728.727	248.021
728.855	251.794
728.983	247.351
729.112	239.320
729.240	246.237
729.368	239.639
729.496	241.515
729.624	245.227
729.752	247.990
729.880	241.052
730.008	241.897
730.137	237.907
730.265	242.505
730.393	237.897
730.521	236.412
730.649	238.278
730.777	235.794
730.905	231.969
731.033	235.649
731.162	238.082
731.290	234.546
731.418	232.629
731.546	231.990
731.674	229.794
731.802	230.041
731.930	230.814
732.058	229.485
732.187	231.732
732.315	231.340
732.443	230.330
732.571	225.340
732.699	231.825
732.827	226.784
732.955	226.443
733.083	225.495
733.212	221.443
733.340	220.660
733.468	220.794
733.596	221.722
733.724	218.361
733.852	221.732
733.980	223.196
734.108	222.144
734.237	217.928
734.365	217.918
734.493	220.876
734.621	219.928
734.749	216.567
734.877	214.887
735.005	216.433
735.133	219.412
735.262	217.433
735.390	213.464
735.518	214.701
735.646	215.371
735.774	210.155
735.902	215.320
736.030	212.330
736.158	210.268
736.287	212.412
736.415	212.907
736.543	212.546
736.671	208.773
736.799	212.330
736.927	208.186
737.055	206.299
737.183	206.742
737.312	208.742
737.440	207.887
737.568	207.856
737.696	210.155
737.824	205.371
737.952	209.464
738.080	207.062
738.208	202.320
738.337	203.289
738.465	203.526
738.593	203.216
738.721	202.959
738.849	204.392
738.977	202.732
739.105	201.155
739.233	201.423
739.362	198.443
739.490	196.825
739.618	199.454
739.746	195.835
739.874	198.753
740.002	197.392
740.130	193.794
740.258	196.000
740.387	199.536
740.515	192.918
740.643	198.247
740.771	196.691
740.899	195.887
741.027	192.649
741.155	193.309
741.283	191.485
741.412	192.237
741.540	192.918
741.668	193.010
741.796	189.103
741.924	189.784
742.052	189.866
742.180	192.175
742.308	189.649
742.437	189.113
742.565	187.165
742.693	186.742
742.821	188.134
742.949	186.515
743.077	186.144
743.205	188.526
743.333	185.505
743.462	185.227
743.590	181.680
743.718	186.041
743.846	181.814
743.974	183.423
744.102	182.175
744.230	185.093
744.358	184.351
744.487	183.732
744.615	182.258
744.743	184.711
744.871	181.093
744.999	180.113
745.127	178.670
745.255	178.825
745.383	180.577
745.512	180.608
745.640	176.113
745.768	178.670
745.896	176.938
746.024	177.289
746.152	178.299
746.280	178.052
746.408	176.887
746.537	178.320
746.665	179.691
746.793	177.928
746.921	178.351
747.049	176.464
747.177	176.381
747.305	175.320
747.433	176.938
747.562	176.268
747.690	174.103
747.818	177.938
747.946	176.227
748.074	173.629
748.202	172.804
748.330	172.278
748.458	172.598
748.587	173.021
748.715	170.701
748.843	171.959
748.971	172.299
749.099	171.526
749.227	170.371
749.355	169.794
749.483	169.763
749.612	165.814
749.740	163.052
749.868	167.794
749.996	166.825
750.124	167.505
750.252	167.258
750.380	167.196
750.508	168.268
750.637	164.948
750.765	167.588
750.893	166.247
751.021	164.454
751.149	167.021
751.277	165.000
751.405	167.443
751.533	167.577
751.662	170.258
751.790	164.670
751.918	167.938
752.046	161.701
752.174	162.000
752.302	162.340
752.430	162.660
752.558	162.072
752.687	159.495
752.815	162.278
752.943	163.052
753.071	158.381
753.199	162.052
753.327	159.093
753.455	158.649
753.583	160.010
753.712	161.021
753.840	158.722
753.968	161.577
754.096	156.093
754.224	156.722
754.352	155.722
754.480	155.897
754.608	156.948
754.737	153.784
754.865	158.433
754.993	155.804
755.121	155.515
755.249	153.825
755.377	152.515
755.505	156.732
755.633	155.856
755.762	150.732
755.890	153.670
756.018	153.361
756.146	151.381
756.274	152.072
756.402	152.990
756.530	151.330
756.658	150.454
756.787	150.010
756.915	148.990
757.043	150.515
757.171	150.381
757.299	151.598
757.427	148.691
757.555	149.227
757.683	148.557
757.812	149.979
757.940	149.474
758.068	147.938
758.196	149.041
758.324	149.464
758.452	147.268
758.580	145.876
758.708	147.216
758.837	149.495
758.965	144.351
759.093	145.495
759.221	147.247
759.349	145.021
759.477	147.206
759.605	142.639
759.733	148.072
759.862	147.381
759.990	143.959
760.118	145.505
760.246	144.124
760.374	144.546
760.502	140.794
760.630	143.639
760.758	142.938
760.887	141.454
761.015	143.155
761.143	140.876
761.271	139.897
761.399	140.742
761.527	142.495
761.655	140.969
761.783	142.072
761.912	141.629
762.040	138.887
762.168	138.722
762.296	139.639
762.424	138.835
762.552	138.134
762.680	137.402
762.808	138.371
762.937	138.660
763.065	137.134
763.193	140.577
763.321	138.021
763.449	138.959
763.577	135.052
763.705	136.278
763.833	141.186
763.962	136.670
764.090	134.186
764.218	137.000
764.346	136.598
764.474	135.206
764.602	136.928
764.730	133.526
764.858	135.320
764.987	134.619
765.115	134.309
765.243	135.052
765.371	133.330
765.499	131.845
765.627	131.918
765.755	131.082
765.883	130.392
766.012	133.639
766.140	131.320
766.268	132.567
766.396	132.165
766.524	129.845
766.652	131.588
766.780	129.010
766.908	129.928
767.037	132.629
767.165	129.134
767.293	132.237
767.421	133.608
767.549	131.825
767.677	131.794
767.805	132.299
767.933	127.897
768.062	129.155
768.190	128.299
768.318	129.268
768.446	128.835
768.574	128.186
768.702	127.928
768.830	129.588
768.958	128.732
769.087	128.722
769.215	131.144
769.343	128.784
769.471	129.546
769.599	132.866
769.727	128.876
769.855	128.485
769.983	124.320
770.112	126.515
770.240	125.804
770.368	124.175
770.496	130.691
770.624	126.660
770.752	132.423
770.880	126.856
771.008	127.175
771.137	128.278
771.265	126.072
771.393	126.124
771.521	127.206
771.649	128.052
771.777	123.887
771.905	126.546
772.033	129.340
772.162	125.371
772.290	124.000
772.418	125.134
772.546	122.866
772.674	127.000
772.802	124.206
772.930	123.948
773.058	123.959
773.187	121.577
773.315	123.804
773.443	121.237
773.571	124.021
773.699	122.608
773.827	122.000
773.955	122.918
774.083	125.134
774.212	123.464
774.340	121.495
774.468	119.258
774.596	121.423
774.724	121.825
774.852	121.918
774.980	121.278
775.108	121.711
775.237	120.082
775.365	120.021
775.493	122.423
775.621	120.907
775.749	120.567
775.877	121.206
776.005	121.515
776.133	121.866
776.262	119.124
776.390	119.495
776.518	119.412
776.646	119.938
776.774	117.866
776.902	119.794
777.030	119.546
777.158	118.144
777.287	119.897
777.415	118.454
777.543	119.289
777.671	120.330
777.799	119.320
777.927	121.598
778.055	117.402
778.183	119.216
778.312	118.072
778.440	117.309
778.568	117.866
778.696	118.072
778.824	119.206
778.952	118.680
779.080	115.588
779.208	117.392
779.337	116.258
779.465	115.680
779.593	116.258
779.721	116.144
779.849	118.278
779.977	119.237
780.105	118.464
780.233	114.567
780.362	115.464
780.490	114.557
780.618	114.835
780.746	116.093
780.874	113.546
781.002	115.072
781.130	114.773
781.258	113.443
781.387	115.701
781.515	113.732
781.643	114.309
781.771	113.701
781.899	115.495
782.027	113.649
782.155	113.598
782.283	112.598
782.412	112.742
782.540	112.979
782.668	113.814
782.796	113.113
782.924	112.536
783.052	113.155
783.180	113.464
783.308	112.876
783.437	112.124
783.565	113.680
783.693	112.206
783.821	112.794
783.949	114.155
784.077	113.216
784.205	114.619
784.333	113.866
784.462	113.804
784.590	115.763
784.718	111.887
784.846	111.887
784.974	111.835
785.102	112.876
785.230	112.845
785.358	112.691
785.487	111.309
785.615	110.247
785.743	111.186
785.871	110.773
785.999	112.010
786.127	111.000
786.255	110.165
786.383	109.649
786.512	110.412
786.640	111.443
786.768	111.144
786.896	109.938
787.024	112.134
787.152	109.093
787.280	110.722
787.408	112.361
787.537	110.402
787.665	110.598
787.793	111.742
787.921	111.784
788.049	110.392
788.177	110.093
788.305	110.093
788.433	109.598
788.562	109.082
788.690	109.598
788.818	108.546
788.946	108.773
789.074	109.175
789.202	108.722
789.330	109.959
789.458	109.495
789.587	108.216
789.715	107.093
789.843	107.340
789.971	109.598
790.099	109.722
790.227	107.567
790.355	108.247
790.483	109.175
790.612	107.804
790.740	108.124
790.868	110.052
790.996	108.515
791.124	108.093
791.252	108.608
791.380	107.845
791.508	106.969
791.637	108.124
791.765	106.588
791.893	107.010
792.021	107.660
792.149	107.381
792.277	108.505
792.405	108.588
792.533	107.330
792.662	108.000
792.790	108.876
792.918	108.320
793.046	106.825
793.174	107.845
793.302	108.278
793.430	107.443
793.558	107.763
793.687	106.485
793.815	106.320
793.943	105.969
794.071	105.433
794.199	105.598
794.327	106.082
794.455	106.423
794.583	107.845
794.712	108.072
794.840	106.361
794.968	106.845
795.096	106.722
795.224	107.794
795.352	106.588
795.480	105.464
795.608	107.402
795.737	107.856
795.865	106.474
795.993	105.433
796.121	106.691
796.249	105.773
796.377	105.196
796.505	106.124
796.633	107.010
796.762	106.021
796.890	106.742
797.018	106.423
797.146	106.021
797.274	104.856
797.402	104.773
797.530	105.794
797.658	106.010
797.787	104.629
797.915	105.887
798.043	106.052
798.171	105.856
798.299	104.515
798.427	104.835
798.555	104.897
798.683	104.948
798.812	104.639
798.940	105.443
799.068	105.041
799.196	107.361
799.324	105.577
799.452	105.567
799.580	104.773
799.708	103.711
799.837	104.546
799.965	104.474
800.093	104.000
800.221	104.784
800.349	105.155
800.477	104.928
800.605	104.021
800.733	103.845
800.862	105.784
800.990	105.010
801.118	105.165
801.246	103.814
801.374	104.309
801.502	105.134
801.630	103.753
801.758	104.093
801.887	103.052
802.015	103.577
802.143	104.412
802.271	104.515
802.399	104.979
802.527	103.113
802.655	103.649
802.783	101.732
802.912	104.485
803.040	104.247
803.168	102.742
803.296	103.443
803.424	103.763
803.552	101.907
803.680	104.845
803.808	102.299
803.937	102.485
804.065	103.010
804.193	102.196
804.321	101.722
804.449	103.856
804.577	102.588
804.705	102.289
804.833	100.804
804.962	102.206
805.090	101.608
805.218	101.268
805.346	103.464
805.474	103.948
805.602	103.124
805.730	102.536
805.858	102.577
805.987	102.402
806.115	101.474
806.243	102.309
806.371	102.000
806.499	101.918
806.627	102.361
806.755	102.804
806.883	101.979
807.012	101.629
807.140	102.526
807.268	101.021
807.396	101.784
807.524	101.299
807.652	101.371
807.780	102.505
807.908	101.907
808.037	101.082
808.165	102.309
808.293	102.124
808.421	103.433
808.549	102.340
808.677	100.928
808.805	102.330
808.933	101.763
809.062	101.732
809.190	102.072
809.318	102.000
809.446	101.804
809.574	101.742
809.702	102.454
809.830	102.289
809.958	101.546
810.087	101.629
810.215	102.701
810.343	102.351
810.471	102.928
810.599	102.423
810.727	103.134
810.855	100.845
810.983	102.423
811.112	103.392
811.240	100.557
811.368	101.052
811.496	103.062
811.624	102.619
811.752	102.526
811.880	100.392
812.008	101.309
812.137	100.928
812.265	101.381
812.393	100.608
812.521	101.485
812.649	101.732
812.777	101.474
812.905	101.227
813.033	99.938
813.162	99.990
813.290	101.691
813.418	100.814
813.546	100.175
813.674	100.402
813.802	99.794
813.930	100.052
814.058	99.505
814.187	101.124
814.315	99.711
814.443	100.443
814.571	99.660
814.699	100.680
814.827	101.134
814.955	100.577
815.083	101.268
815.212	100.670
815.340	100.474
815.468	99.639
815.596	99.608
815.724	99.866
815.852	100.206
815.980	99.866
816.108	99.711
816.237	99.969
816.365	99.495
816.493	100.660
816.621	100.155
816.749	101.814
816.877	99.825
817.005	100.577
817.133	100.722
817.262	100.021
817.390	101.557
817.518	100.412
817.646	100.660
817.774	100.361
817.902	100.732
818.030	99.402
818.158	101.887
818.287	101.124
818.415	100.381
818.543	100.278
818.671	99.948
818.799	100.134
818.927	99.216
819.055	99.629
819.183	101.247
819.312	99.722
819.440	99.629
819.568	99.639
819.696	100.680
819.824	99.381
819.952	99.598
820.080	99.165
820.208	99.144
820.337	100.639
820.465	99.072
820.593	98.454
820.721	99.753
820.849	98.577
820.977	98.299
821.105	99.784
821.233	99.361
821.362	100.052
821.490	99.495
821.618	99.113
821.746	98.206
821.874	98.732
822.002	97.567
822.130	99.124
822.258	99.670
822.387	99.299
822.515	99.320
822.643	98.443
822.771	98.021
822.899	98.577
823.027	99.371
823.155	98.330
823.283	98.938
823.412	101.711
823.540	100.155
823.668	99.237
823.796	98.722
823.924	99.526
824.052	97.392
824.180	97.278
824.308	99.340
824.437	99.536
824.565	99.237
824.693	98.938
824.821	99.722
824.949	98.649
825.077	98.732
825.205	98.206
825.333	98.165
825.462	99.021
825.590	98.206
825.718	97.371
825.846	99.206
825.974	100.124
826.102	99.278
826.230	98.660
826.358	99.093
826.487	98.794
826.615	96.928
826.743	98.536
826.871	99.876
826.999	100.546
827.127	100.113
827.255	98.340
827.383	98.072
827.512	98.526
827.640	99.165
827.768	98.485
827.896	98.794
828.024	98.464
828.152	98.567
828.280	99.103
828.408	98.701
828.537	99.155
828.665	98.340
828.793	99.093
828.921	99.289
829.049	97.835
829.177	98.072
829.305	98.464
829.433	97.990
829.562	97.680
829.690	99.546
829.818	98.557
829.946	97.351
830.074	98.309
830.202	100.536
830.330	97.928
830.458	97.598
830.587	98.577
830.715	98.165
830.843	98.124
830.971	97.835
831.099	97.361
831.227	97.412
831.355	98.536
831.483	99.351
831.612	98.443
831.740	99.155
831.868	98.536
831.996	98.423
832.124	98.897
832.252	98.216
832.380	97.804
832.508	97.990
832.637	99.155
832.765	99.784
832.893	98.990
833.021	99.546
833.149	98.093
833.277	98.897
833.405	98.897
833.533	97.330
833.662	99.175
833.790	97.299
833.918	99.546
834.046	98.845
834.174	99.227
834.302	98.454
834.430	97.918
834.558	98.732
834.687	99.196
834.815	98.485
834.943	97.041
835.071	97.052
835.199	97.175
835.327	98.897
835.455	97.155
835.583	98.412
835.712	98.732
835.840	99.443
835.968	98.155
836.096	99.031
836.224	98.155
836.352	99.546
836.480	99.866
836.608	98.371
836.737	98.722
836.865	97.557
836.993	97.835
837.121	98.330
837.249	97.938
837.377	98.711
837.505	97.454
837.633	98.742
837.762	97.505
837.890	97.433
838.018	97.134
838.146	99.062
838.274	98.351
838.402	99.454
838.530	98.309
838.658	96.918
838.787	97.278
838.915	98.485
839.043	98.835
839.171	99.052
839.299	98.588
839.427	97.381
839.555	100.381
839.683	99.309
839.812	99.041
839.940	98.536
840.068	99.206
840.196	99.072
840.324	98.845
840.452	97.866
840.580	97.794
840.708	97.876
840.837	97.526
840.965	98.536
841.093	97.629
841.221	98.825
841.349	100.000
841.477	98.309
841.605	97.969
841.733	97.371
841.862	99.515
841.990	97.887
842.118	98.660
842.246	96.897
842.374	98.320
842.502	97.876
842.630	97.866
842.758	98.866
842.887	97.907
843.015	97.619
843.143	98.299
843.271	98.082
843.399	98.052
843.527	97.526
843.655	97.526
843.783	97.763
843.912	97.443
844.040	98.103
844.168	98.546
844.296	98.732
844.424	99.567
844.552	96.660
844.680	98.031
844.808	99.206
844.937	97.948
845.065	97.691
845.193	99.031
845.321	98.021
845.449	98.330
845.577	98.361
845.705	98.041
845.833	98.876
845.962	97.196
846.090	97.639
846.218	98.216
846.346	99.216
846.474	97.990
846.602	97.928
846.730	97.990
846.858	97.124
846.987	97.784
847.115	97.938
847.243	98.392
847.371	98.835
847.499	97.165
847.627	97.794
847.755	97.753
847.883	97.938
848.012	97.876
848.140	98.093
848.268	98.227
848.396	98.278
848.524	98.773
848.652	98.588
848.780	97.619
848.908	100.505
849.037	98.629
849.165	98.845
849.293	96.608
849.421	98.887
849.549	98.186
849.677	97.515
849.805	98.691
849.933	98.938
850.062	98.938
850.190	96.588
850.318	97.485
850.446	99.629
850.574	98.196
850.702	99.000
850.830	98.691
850.958	98.093
851.087	98.361
851.215	98.381
851.343	97.845
851.471	97.691
851.599	98.124
851.727	98.021
851.855	98.021
851.983	97.495
852.112	98.887
852.240	98.660
852.368	97.969
852.496	97.505
852.624	97.804
852.752	96.577
852.880	98.309
853.008	97.990
853.137	98.825
853.265	99.309
853.393	98.155
853.521	97.237
853.649	98.247
853.777	97.557
853.905	97.897
854.033	96.165
854.162	97.206
854.290	98.155
854.418	96.835
854.546	97.753
854.674	98.629
854.802	96.825
854.930	97.598
855.058	96.794
855.187	98.062
855.315	97.474
855.443	97.732
855.571	98.278
855.699	99.619
855.827	97.887
855.955	97.505
856.083	97.216
856.212	97.742
856.340	98.031
856.468	97.577
856.596	98.155
856.724	97.320
856.852	98.227
856.980	96.577
857.108	98.000
857.237	98.340
857.365	96.959
857.493	98.680
857.621	97.485
857.749	96.835
857.877	97.732
858.005	99.794
858.133	96.588
858.262	97.340
858.390	97.907
858.518	96.433
858.646	97.309
858.774	99.196
858.902	98.794
859.030	97.990
859.158	96.928
859.287	98.113
859.415	96.804
859.543	97.711
859.671	98.052
859.799	98.619
859.927	97.907
860.055	99.773
860.183	97.309
860.312	97.907
860.440	97.155
860.568	98.505
860.696	97.433
860.824	98.216
860.952	97.433
861.080	97.969
861.208	98.753
861.337	97.763
861.465	97.670
861.593	98.670
861.721	98.959
861.849	96.247
861.977	97.649
862.105	98.526
862.233	96.371
862.362	98.186
862.490	98.577
862.618	98.196
862.746	98.258
862.874	99.031
863.002	98.732
863.130	98.577
863.258	99.082
863.387	98.505
863.515	98.577
863.643	98.412
863.771	98.505
863.899	98.124
864.027	99.825
864.155	99.082
864.283	97.155
864.412	98.649
864.540	98.577
864.668	97.649
864.796	99.351
864.924	98.928
865.052	97.680
865.180	99.072
865.308	98.794
865.437	97.371
865.565	97.000
865.693	98.206
865.821	97.948
865.949	98.598
866.077	98.495
866.205	97.412
866.333	96.835
866.462	96.918
866.590	99.268
866.718	98.701
866.846	99.433
866.974	98.959
867.102	98.072
867.230	97.773
867.358	98.000
867.487	97.454
867.615	96.938
867.743	97.990
867.871	98.845
867.999	98.371
868.127	97.948
868.255	99.062
868.383	98.722
868.512	98.691
868.640	98.536
868.768	99.258
868.896	98.165
869.024	98.505
869.152	98.340
869.280	98.485
869.408	98.577
869.537	98.175
869.665	98.680
869.793	98.165
869.921	98.938
870.049	99.753
870.177	98.474
870.305	98.577
870.433	100.062
870.562	98.866
870.690	98.866
870.818	99.299
870.946	99.454
871.074	99.000
871.202	97.340
871.330	99.010
871.458	98.546
871.587	98.464
871.715	98.299
871.843	98.845
871.971	98.711
872.099	96.412
872.227	98.134
872.355	98.227
872.483	97.691
872.612	98.619
872.740	97.588
872.868	99.041
872.996	97.361
873.124	98.825
873.252	99.082
873.380	97.134
873.508	98.969
873.637	98.371
873.765	97.392
873.893	98.753
874.021	99.062
874.149	98.093
874.277	99.515
874.405	99.216
874.533	99.474
874.662	97.433
874.790	97.196
874.918	98.825
875.046	96.876
875.174	98.144
875.302	97.990
875.430	98.196
875.558	97.392
875.687	99.598
875.815	99.763
875.943	97.907
876.071	99.825
876.199	99.000
876.327	98.247
876.455	98.340
876.583	98.186
876.712	98.412
876.840	96.361
876.968	99.320
877.096	98.876
877.224	99.443
877.352	98.041
877.480	98.660
877.608	97.979
877.737	98.371
877.865	97.464
877.993	98.258
878.121	98.485
878.249	100.052
878.377	98.144
878.505	98.144
878.633	97.918
878.762	99.577
878.890	97.918
879.018	98.021
879.146	98.866
879.274	98.897
879.402	99.216
879.530	97.866
879.658	99.691
879.787	97.825
879.915	98.010
880.043	98.082
880.171	98.402
880.299	97.608
880.427	98.124
880.555	99.247
880.683	99.763
880.812	99.113
880.940	98.670
881.068	98.010
881.196	97.887
881.324	99.062
881.452	97.175
881.580	98.124
881.708	97.938
881.837	99.237
881.965	98.423
882.093	98.979
882.221	99.629
882.349	97.928
882.477	99.320
882.605	99.021
882.733	98.680
882.862	99.103
882.990	99.186
883.118	99.577
883.246	99.794
883.374	98.948
883.502	99.021
883.630	100.072
883.758	99.629
883.887	98.320
884.015	99.330
884.143	99.557
884.271	99.021
884.399	98.649
884.527	98.866
884.655	99.052
884.783	99.948
884.912	99.423
885.040	98.381
885.168	98.247
885.296	98.959
885.424	98.402
885.552	98.814
885.680	97.938
885.808	98.701
885.937	100.103
886.065	98.052
886.193	98.196
886.321	100.227
886.449	99.866
886.577	99.268
886.705	98.052
886.833	99.351
886.962	99.052
887.090	99.196
887.218	99.495
887.346	97.258
887.474	99.330
887.602	99.412
887.730	97.804
887.858	98.629
887.987	99.165
888.115	98.588
888.243	99.660
888.371	99.031
888.499	100.247
888.627	98.402
888.755	99.216
888.883	98.856
889.012	98.216
889.140	98.866
889.268	97.784
889.396	97.742
889.524	98.876
889.652	97.505
889.780	99.526
889.908	98.340
890.037	98.124
890.165	97.340
890.293	98.784
890.421	98.938
890.549	100.103
890.677	98.454
890.805	99.062
890.933	98.588
891.062	98.093
891.190	98.907
891.318	100.639
891.446	99.979
891.574	98.299
891.702	98.990
891.830	99.062
891.958	99.825
892.087	100.351
892.215	100.021
892.343	100.485
892.471	98.577
892.599	99.443
892.727	100.722
892.855	99.773
892.983	100.165
893.112	99.361
893.240	100.237
893.368	99.371
893.496	100.103
893.624	99.567
893.752	99.381
893.880	98.021
894.008	99.660
894.137	100.021
894.265	99.515
894.393	99.701
894.521	98.237
894.649	100.598
894.777	98.804
894.905	98.897
895.033	101.505
895.162	100.134
895.290	99.320
895.418	100.969
895.546	101.072
895.674	98.546
895.802	98.948
895.930	98.649
896.058	98.959
896.187	99.969
896.315	101.928
896.443	99.907
896.571	100.392
896.699	99.969
896.827	100.113
896.955	98.732
897.083	99.701
897.212	100.619
897.340	99.577
897.468	99.237
897.596	98.423
897.724	98.206
897.852	100.443
897.980	99.567
898.108	98.670
898.237	98.629
898.365	99.082
898.493	99.216
898.621	99.258
898.749	98.340
898.877	98.897
899.005	98.062
899.133	99.784
899.262	100.186
899.390	98.526
899.518	99.010
899.646	99.082
899.774	100.206
899.902	100.103
900.030	99.351
900.158	99.247
900.287	99.237
900.415	99.464
900.543	99.711
900.671	101.371
900.799	99.732
900.927	99.856
901.055	99.856
901.183	98.990
901.312	100.268
901.440	101.021
901.568	100.526
901.696	98.753
901.824	98.928
901.952	100.144
902.080	100.010
902.208	98.619
902.337	100.763
902.465	99.443
902.593	100.464
902.721	100.268
902.849	101.423
902.977	99.557
903.105	99.515
903.233	99.711
903.362	99.959
903.490	97.969
903.618	99.433
903.746	99.938
903.874	99.979
904.002	101.454
904.130	100.773
904.258	98.474
904.387	98.928
904.515	99.474
904.643	99.959
904.771	99.928
904.899	99.742
905.027	99.320
905.155	99.206
905.283	99.814
905.412	100.835
905.540	100.351
905.668	99.134
905.796	99.381
905.924	100.330
906.052	100.454
906.180	101.309
906.308	98.773
906.437	98.629
906.565	100.773
906.693	99.557
906.821	100.093
906.949	98.866
907.077	99.897
907.205	100.763
907.333	99.680
907.462	100.402
907.590	100.351
907.718	98.701
907.846	99.608
907.974	101.784
908.102	101.227
908.230	99.680
908.358	98.990
908.487	99.660
908.615	99.979
908.743	99.608
908.871	100.794
908.999	99.041
909.127	99.340
909.255	98.495
909.383	98.825
909.512	100.155
909.640	100.495
909.768	100.165
909.896	100.763
910.024	100.495
910.152	101.278
910.280	100.722
910.408	100.784
910.537	101.536
910.665	101.340
910.793	100.938
910.921	100.845
911.049	99.897
911.177	99.155
911.305	99.918
911.433	101.041
911.562	100.206
911.690	100.340
911.818	100.351
911.946	101.021
912.074	100.938
912.202	99.722
912.330	99.907
912.458	102.402
912.587	100.959
912.715	100.155
912.843	101.505
912.971	101.443
913.099	101.701
913.227	101.041
913.355	100.691
913.483	101.227
913.612	100.371
913.740	99.979
913.868	100.588
