90_130_0_Pol_at_750.00nm_cut_at_1179.00Y_01.dat
03.07.2023
11:32:38
cut middle at Y: 1179.00
top cursor: 1231 down cursor: 1127 mean of: 104 lines , 2560 datapoints
wavelength(nm)	intensity[arb. units]
585.996	10094.827
586.124	9912.135
586.252	9893.981
586.380	9932.000
586.508	9953.183
586.637	10034.654
586.765	9974.769
586.893	10012.163
587.021	10090.894
587.149	10064.135
587.277	10103.337
587.405	10089.471
587.533	10138.606
587.662	10198.952
587.790	10175.817
587.918	10160.740
588.046	10136.635
588.174	10176.202
588.302	10188.413
588.430	10163.952
588.558	10169.769
588.687	10231.962
588.815	10215.269
588.943	10202.048
589.071	10177.933
589.199	10203.067
589.327	10164.654
589.455	10264.221
589.583	10193.529
589.712	10202.192
589.840	10165.567
589.968	10170.529
590.096	10187.875
590.224	10167.202
590.352	10230.365
590.480	10183.606
590.608	10156.029
590.737	10179.933
590.865	10254.317
590.993	10165.962
591.121	10183.240
591.249	10150.865
591.377	10191.019
591.505	10281.644
591.633	10180.990
591.762	10196.942
591.890	10179.442
592.018	10294.663
592.146	10231.394
592.274	10234.971
592.402	10182.606
592.530	10365.394
592.658	10298.856
592.787	10294.837
592.915	10346.750
593.043	10247.279
593.171	10288.529
593.299	10309.635
593.427	10295.712
593.555	10320.365
593.683	10326.952
593.812	10338.558
593.940	10375.577
594.068	10415.692
594.196	10339.606
594.324	10428.846
594.452	10608.933
594.580	10493.250
594.708	10513.923
594.837	10512.163
594.965	10621.029
595.093	10581.375
595.221	10623.788
595.349	10620.683
595.477	10652.673
595.605	10650.817
595.733	10679.567
595.862	10726.952
595.990	10716.346
596.118	10792.769
596.246	10846.087
596.374	10754.673
596.502	10766.981
596.630	10805.933
596.758	10812.356
596.887	10833.471
597.015	10857.115
597.143	10858.721
597.271	10839.058
597.399	10929.721
597.527	10905.606
597.655	10876.827
597.783	10903.654
597.912	10915.163
598.040	10939.144
598.168	10896.702
598.296	10880.202
598.424	11058.846
598.552	10892.385
598.680	10911.702
598.808	10958.779
598.937	10920.442
599.065	10896.971
599.193	11005.221
599.321	10982.221
599.449	10900.740
599.577	10901.462
599.705	10932.606
599.833	10874.683
599.962	10845.750
600.090	10900.288
600.218	10910.673
600.346	10867.683
600.474	10869.760
600.602	10834.808
600.730	10858.779
600.858	10887.577
600.987	10914.183
601.115	10891.154
601.243	10948.769
601.371	10998.538
601.499	10968.952
601.627	10936.212
601.755	10906.048
601.883	11013.875
602.012	10898.279
602.140	10992.183
602.268	10961.221
602.396	11136.433
602.524	10988.885
602.652	11076.087
602.780	11071.856
602.908	11119.288
603.037	11150.702
603.165	11152.433
603.293	11207.433
603.421	11225.423
603.549	11236.298
603.677	11277.692
603.805	11282.798
603.933	11307.404
604.062	11401.221
604.190	11456.990
604.318	11433.471
604.446	11416.837
604.574	11503.279
604.702	11548.135
604.830	11544.788
604.958	11549.548
605.087	11608.663
605.215	11663.250
605.343	11742.971
605.471	11763.356
605.599	11752.942
605.727	11835.587
605.855	11823.048
605.983	11835.933
606.112	11911.654
606.240	11908.029
606.368	11906.635
606.496	11878.538
606.624	11960.529
606.752	11946.096
606.880	11976.173
607.008	11973.904
607.137	11973.048
607.265	12083.356
607.393	12021.394
607.521	12076.798
607.649	12013.250
607.777	12008.702
607.905	12071.885
608.033	11972.365
608.162	12041.779
608.290	12017.865
608.418	12144.077
608.546	12083.125
608.674	12092.087
608.802	12027.596
608.930	12016.481
609.058	12017.731
609.187	12001.240
609.315	11995.625
609.443	11980.846
609.571	12107.029
609.699	11977.163
609.827	12064.942
609.955	11973.923
610.083	11925.038
610.212	11960.173
610.340	11909.163
610.468	11917.183
610.596	11950.962
610.724	11907.673
610.852	11947.817
610.980	11956.923
611.108	11897.548
611.237	11887.750
611.365	11895.567
611.493	11888.933
611.621	11879.846
611.749	11934.413
611.877	11983.817
612.005	11889.500
612.133	11978.952
612.262	11955.538
612.390	11982.231
612.518	12025.327
612.646	11982.096
612.774	12057.365
612.902	12091.673
613.030	12028.490
613.158	12006.317
613.287	12163.202
613.415	12010.404
613.543	12093.029
613.671	12085.038
613.799	12145.779
613.927	12179.981
614.055	12176.452
614.183	12204.000
614.312	12165.163
614.440	12367.077
614.568	12271.683
614.696	12301.760
614.824	12332.337
614.952	12347.423
615.080	12341.596
615.208	12420.221
615.337	12492.288
615.465	12422.404
615.593	12476.673
615.721	12466.038
615.849	12592.538
615.977	12540.125
616.105	12563.625
616.233	12567.817
616.362	12624.798
616.490	12627.135
616.618	12687.212
616.746	12784.433
616.874	12743.288
617.002	12782.183
617.130	12781.394
617.258	12733.952
617.387	12812.423
617.515	12802.096
617.643	12797.913
617.771	12830.529
617.899	12780.442
618.027	12851.125
618.155	12899.933
618.283	12885.702
618.412	12931.240
618.540	12991.192
618.668	12949.712
618.796	12946.010
618.924	12871.606
619.052	12903.154
619.180	12923.144
619.308	12935.904
619.437	12912.269
619.565	12923.750
619.693	12909.933
619.821	12959.346
619.949	12854.740
620.077	12923.846
620.205	12923.183
620.333	12933.087
620.462	12867.875
620.590	12925.423
620.718	12922.452
620.846	12934.163
620.974	12945.000
621.102	12987.375
621.230	12914.125
621.358	13051.365
621.487	12881.231
621.615	12946.760
621.743	12821.635
621.871	12948.212
621.999	12828.471
622.127	12885.548
622.255	12847.798
622.383	12819.413
622.512	12844.346
622.640	12838.788
622.768	12896.990
622.896	12919.577
623.024	12878.385
623.152	12861.144
623.280	12918.519
623.408	12843.067
623.537	12837.490
623.665	12802.356
623.793	12858.231
623.921	12844.106
624.049	12841.115
624.177	12824.346
624.305	12816.202
624.433	12811.471
624.562	12789.990
624.690	12910.279
624.818	12730.731
624.946	12759.865
625.074	12745.731
625.202	12730.192
625.330	12748.221
625.458	12872.106
625.587	12744.702
625.715	12773.990
625.843	12735.106
625.971	12808.279
626.099	12746.596
626.227	12777.625
626.355	12735.538
626.483	12790.250
626.612	12719.106
626.740	12768.490
626.868	12754.606
626.996	12811.221
627.124	12757.404
627.252	12729.260
627.380	12729.702
627.508	12726.260
627.637	12775.298
627.765	12796.192
627.893	12789.365
628.021	12871.154
628.149	12773.904
628.277	12885.048
628.405	12803.673
628.533	12844.490
628.662	12842.356
628.790	12935.058
628.918	12865.904
629.046	12999.490
629.174	12870.962
629.302	12903.971
629.430	12880.913
629.558	12936.990
629.687	12894.260
629.815	12960.058
629.943	13055.510
630.071	13003.279
630.199	12964.452
630.327	13011.269
630.455	13029.048
630.583	13016.154
630.712	13033.894
630.840	13040.433
630.968	13042.663
631.096	13057.298
631.224	13086.885
631.352	13212.567
631.480	13139.875
631.608	13290.192
631.737	13087.567
631.865	13256.279
631.993	13212.846
632.121	13329.596
632.249	13196.683
632.377	13173.077
632.505	13165.712
632.633	13223.856
632.762	13113.731
632.890	13172.606
633.018	13188.356
633.146	13173.510
633.274	13142.288
633.402	13196.952
633.530	13171.942
633.658	13155.192
633.787	13152.096
633.915	13120.481
634.043	13132.163
634.171	13195.087
634.299	13141.221
634.427	13089.212
634.555	13316.087
634.683	13117.260
634.812	13127.462
634.940	13048.500
635.068	13068.760
635.196	13050.048
635.324	13038.452
635.452	13029.837
635.580	13147.067
635.708	12983.510
635.837	13026.856
635.965	12986.029
636.093	12946.481
636.221	12912.462
636.349	12831.135
636.477	12874.933
636.605	12890.827
636.733	12844.202
636.862	12817.202
636.990	12840.231
637.118	12769.519
637.246	12745.317
637.374	12893.212
637.502	12708.625
637.630	12678.808
637.758	12669.827
637.887	12624.558
638.015	12732.702
638.143	12650.865
638.271	12574.962
638.399	12586.692
638.527	12512.885
638.655	12552.981
638.783	12486.865
638.912	12568.808
639.040	12486.356
639.168	12456.827
639.296	12385.346
639.424	12521.279
639.552	12418.260
639.680	12466.529
639.808	12428.096
639.937	12369.356
640.065	12352.894
640.193	12360.721
640.321	12429.308
640.449	12388.202
640.577	12326.250
640.705	12298.779
640.833	12329.404
640.962	12369.740
641.090	12292.423
641.218	12299.019
641.346	12383.442
641.474	12325.760
641.602	12284.510
641.730	12228.029
641.858	12235.221
641.987	12239.519
642.115	12391.375
642.243	12285.923
642.371	12421.192
642.499	12253.683
642.627	12299.798
642.755	12252.000
642.883	12244.269
643.012	12253.048
643.140	12281.587
643.268	12292.337
643.396	12202.760
643.524	12254.913
643.652	12302.413
643.780	12197.962
643.908	12213.654
644.037	12308.115
644.165	12291.337
644.293	12388.250
644.421	12167.404
644.549	12250.394
644.677	12271.202
644.805	12186.096
644.933	12139.279
645.062	12198.173
645.190	12332.221
645.318	12225.087
645.446	12148.731
645.574	12118.067
645.702	12185.058
645.830	12186.010
645.958	12113.635
646.087	12105.365
646.215	12092.375
646.343	12076.846
646.471	12256.221
646.599	12078.567
646.727	12033.702
646.855	12061.875
646.983	12011.567
647.112	12099.365
647.240	12000.135
647.368	12052.423
647.496	12008.769
647.624	12010.606
647.752	11950.442
647.880	11939.135
648.008	11987.365
648.137	11973.798
648.265	11904.827
648.393	11999.885
648.521	11881.058
648.649	12015.769
648.777	11904.519
648.905	11819.519
649.033	11928.538
649.162	11795.644
649.290	11727.808
649.418	11727.558
649.546	11876.288
649.674	11704.010
649.802	11678.471
649.930	11610.106
650.058	11579.288
650.187	11614.548
650.315	11565.644
650.443	11583.788
650.571	11532.058
650.699	11485.990
650.827	11484.731
650.955	11447.183
651.083	11500.702
651.212	11374.519
651.340	11414.250
651.468	11358.298
651.596	11365.221
651.724	11361.683
651.852	11293.952
651.980	11316.635
652.108	11261.558
652.237	11272.173
652.365	11222.269
652.493	11217.933
652.621	11180.817
652.749	11174.721
652.877	11157.317
653.005	11191.731
653.133	11099.452
653.262	11079.365
653.390	11032.933
653.518	11184.894
653.646	11027.106
653.774	10985.500
653.902	11077.183
654.030	11008.471
654.158	10940.163
654.287	10957.269
654.415	10934.712
654.543	10965.298
654.671	10897.856
654.799	10885.856
654.927	10858.375
655.055	10807.279
655.183	10821.019
655.312	10789.596
655.440	10722.462
655.568	10777.010
655.696	10784.875
655.824	10725.202
655.952	10701.913
656.080	10640.558
656.208	10639.721
656.337	10687.654
656.465	10799.510
656.593	10637.558
656.721	10689.712
656.849	10689.644
656.977	10468.212
657.105	10560.490
657.233	10555.269
657.362	10567.625
657.490	10525.346
657.618	10529.827
657.746	10476.269
657.874	10405.971
658.002	10395.885
658.130	10320.250
658.258	10334.577
658.387	10285.731
658.515	10261.413
658.643	10214.375
658.771	10298.221
658.899	10206.644
659.027	10197.144
659.155	10219.000
659.283	10190.827
659.412	10161.952
659.540	10109.192
659.668	10170.740
659.796	10215.808
659.924	10174.433
660.052	10249.760
660.180	10118.798
660.308	10183.923
660.437	10156.952
660.565	10098.308
660.693	9981.096
660.821	10161.144
660.949	10015.058
661.077	10008.712
661.205	10125.577
661.333	9933.067
661.462	9917.173
661.590	10035.298
661.718	9932.587
661.846	9960.885
661.974	9879.250
662.102	9874.817
662.230	9866.490
662.358	9741.750
662.487	9818.769
662.615	9781.788
662.743	9820.087
662.871	9763.260
662.999	9694.327
663.127	9693.673
663.255	9688.981
663.383	9819.394
663.512	9613.308
663.640	9653.413
663.768	9688.317
663.896	9627.769
664.024	9620.567
664.152	9588.750
664.280	9658.615
664.408	9537.125
664.537	9514.952
664.665	9561.673
664.793	9534.163
664.921	9524.923
665.049	9543.712
665.177	9445.692
665.305	9475.221
665.433	9467.885
665.562	9602.240
665.690	9460.202
665.818	9567.163
665.946	9382.413
666.074	9359.260
666.202	9373.413
666.330	9307.923
666.458	9705.394
666.587	9323.385
666.715	9281.317
666.843	9268.519
666.971	9305.962
667.099	9296.413
667.227	9298.942
667.355	9294.625
667.483	9195.731
667.612	9232.615
667.740	9199.077
667.868	9193.279
667.996	9145.510
668.124	9141.356
668.252	9257.712
668.380	9079.356
668.508	9129.750
668.637	9068.154
668.765	9073.067
668.893	9047.087
669.021	8980.019
669.149	9053.615
669.277	8951.769
669.405	9043.615
669.533	9006.981
669.662	8942.125
669.790	8882.750
669.918	8918.240
670.046	9033.288
670.174	8848.087
670.302	8821.298
670.430	8793.788
670.558	8834.144
670.687	8935.202
670.815	8743.712
670.943	8795.990
671.071	8696.337
671.199	8657.856
671.327	8672.817
671.455	8712.788
671.583	8621.567
671.712	8601.827
671.840	8653.202
671.968	8725.067
672.096	8686.692
672.224	8528.625
672.352	8480.779
672.480	8443.548
672.608	8495.413
672.737	8424.288
672.865	8379.346
672.993	8378.423
673.121	8359.894
673.249	8329.202
673.377	8282.356
673.505	8282.163
673.633	8324.798
673.762	8231.606
673.890	8249.394
674.018	8251.144
674.146	8154.731
674.274	8179.067
674.402	8199.798
674.530	8140.663
674.658	8100.702
674.787	8077.952
674.915	8195.481
675.043	8060.654
675.171	8047.846
675.299	7946.154
675.427	7950.760
675.555	7952.298
675.683	7945.337
675.812	7931.740
675.940	7905.721
676.068	7813.471
676.196	7857.260
676.324	7822.385
676.452	7745.942
676.580	7736.375
676.708	7715.106
676.837	7693.442
676.965	7801.721
677.093	7803.865
677.221	7681.346
677.349	7612.587
677.477	7677.923
677.605	7562.404
677.733	7559.846
677.862	7564.385
677.990	7536.000
678.118	7568.904
678.246	7511.288
678.374	7551.538
678.502	7466.865
678.630	7395.135
678.758	7434.587
678.887	7550.683
679.015	7319.577
679.143	7311.212
679.271	7309.981
679.399	7287.635
679.527	7297.673
679.655	7321.644
679.783	7226.865
679.912	7215.288
680.040	7387.058
680.168	7158.394
680.296	7173.077
680.424	7158.788
680.552	7116.413
680.680	7099.481
680.808	7050.029
680.937	7042.096
681.065	7110.683
681.193	7019.038
681.321	6988.538
681.449	7043.173
681.577	6985.317
681.705	6959.788
681.833	6958.538
681.962	6923.567
682.090	6874.000
682.218	6896.240
682.346	6883.567
682.474	6858.962
682.602	6835.346
682.730	6889.442
682.858	6759.875
682.987	6791.394
683.115	6822.510
683.243	6791.510
683.371	6754.317
683.499	6727.087
683.627	6776.635
683.755	6734.202
683.883	6699.442
684.012	6737.038
684.140	6649.942
684.268	6655.663
684.396	6689.981
684.524	6632.798
684.652	6650.548
684.780	6634.462
684.908	6637.692
685.037	6619.269
685.165	6592.144
685.293	6660.625
685.421	6582.625
685.549	6569.356
685.677	6490.067
685.805	6558.750
685.933	6492.577
686.062	6496.587
686.190	6475.029
686.318	6457.702
686.446	6436.712
686.574	6397.635
686.702	6450.952
686.830	6375.317
686.958	6425.683
687.087	6353.596
687.215	6336.375
687.343	6367.356
687.471	6477.644
687.599	6254.048
687.727	6256.885
687.855	6227.471
687.983	6200.990
688.112	6268.288
688.240	6211.673
688.368	6232.548
688.496	6177.192
688.624	6163.279
688.752	6309.885
688.880	6160.548
689.008	6127.538
689.137	6118.413
689.265	6059.288
689.393	6067.962
689.521	6044.933
689.649	6136.500
689.777	6055.163
689.905	6102.769
690.033	5980.529
690.162	5973.279
690.290	6007.327
690.418	5943.019
690.546	5987.212
690.674	5964.875
690.802	5977.952
690.930	5901.183
691.058	5892.192
691.187	5844.510
691.315	5827.385
691.443	5812.808
691.571	5847.625
691.699	5774.337
691.827	5775.231
691.955	5758.452
692.083	5724.769
692.212	5732.529
692.340	5708.346
692.468	5761.577
692.596	5703.481
692.724	5666.846
692.852	5696.163
692.980	5685.827
693.108	5711.087
693.237	5583.269
693.365	5600.413
693.493	5564.644
693.621	5561.702
693.749	5484.596
693.877	5577.596
694.005	5467.779
694.133	5477.096
694.262	5510.606
694.390	5404.202
694.518	5437.087
694.646	5425.808
694.774	5351.029
694.902	5362.067
695.030	5356.327
695.158	5322.990
695.287	5312.750
695.415	5293.673
695.543	5281.125
695.671	5211.548
695.799	5331.673
695.927	5234.490
696.055	5254.731
696.183	5190.413
696.312	5353.644
696.440	5163.606
696.568	5190.135
696.696	5072.077
696.824	5052.163
696.952	5070.538
697.080	5066.058
697.208	5000.981
697.337	5006.192
697.465	5004.106
697.593	4946.135
697.721	5070.635
697.849	4943.317
697.977	4979.558
698.105	5017.846
698.233	4930.990
698.362	4860.327
698.490	4996.942
698.618	4841.760
698.746	4798.673
698.874	4891.885
699.002	4811.442
699.130	4812.933
699.258	4785.894
699.387	4721.202
699.515	4764.337
699.643	4761.433
699.771	4816.279
699.899	4691.038
700.027	4618.481
700.155	4725.500
700.283	4599.423
700.412	4614.692
700.540	4652.240
700.668	4668.442
700.796	4586.615
700.924	4594.221
701.052	4607.779
701.180	4575.260
701.308	4494.788
701.437	4487.625
701.565	4475.721
701.693	4501.462
701.821	4645.404
701.949	4419.240
702.077	4432.067
702.205	4485.538
702.333	4382.154
702.462	4366.183
702.590	4417.692
702.718	4317.548
702.846	4493.048
702.974	4280.029
703.102	4288.913
703.230	4300.837
703.358	4250.308
703.487	4250.000
703.615	4236.202
703.743	4196.394
703.871	4191.510
703.999	4193.010
704.127	4168.731
704.255	4128.577
704.383	4137.769
704.512	4201.740
704.640	4147.058
704.768	4194.683
704.896	4081.760
705.024	4027.115
705.152	4054.769
705.280	4089.510
705.408	3960.375
705.537	3956.192
705.665	3968.548
705.793	3944.288
705.921	3941.212
706.049	3910.327
706.177	3919.154
706.305	3858.327
706.433	3911.087
706.562	3878.067
706.690	3878.096
706.818	3857.683
706.946	3820.298
707.074	3770.952
707.202	3769.529
707.330	3761.135
707.458	3749.029
707.587	3701.019
707.715	3745.567
707.843	3760.000
707.971	3752.769
708.099	3665.798
708.227	3666.654
708.355	3658.279
708.483	3625.260
708.612	3665.250
708.740	3588.173
708.868	3578.375
708.996	3643.490
709.124	3635.250
709.252	3592.115
709.380	3593.231
709.508	3536.538
709.637	3571.154
709.765	3538.106
709.893	3562.577
710.021	3492.385
710.149	3580.702
710.277	3445.423
710.405	3468.087
710.533	3446.298
710.662	3419.615
710.790	3557.087
710.918	3418.519
711.046	3443.990
711.174	3383.788
711.302	3434.433
711.430	3374.260
711.558	3415.577
711.687	3369.096
711.815	3304.413
711.943	3325.356
712.071	3312.942
712.199	3326.423
712.327	3385.067
712.455	3264.990
712.583	3431.856
712.712	3298.077
712.840	3313.365
712.968	3232.952
713.096	3234.135
713.224	3207.587
713.352	3201.327
713.480	3153.538
713.608	3160.788
713.737	3127.212
713.865	3189.288
713.993	3167.077
714.121	3142.442
714.249	3096.317
714.377	3097.010
714.505	3084.923
714.633	3101.192
714.762	3091.154
714.890	3065.308
715.018	3056.019
715.146	3098.837
715.274	3018.019
715.402	3033.327
715.530	3004.183
715.658	3035.663
715.787	2966.596
715.915	3081.663
716.043	2979.202
716.171	3098.654
716.299	2934.087
716.427	2995.625
716.555	2926.125
716.683	2918.192
716.812	2900.529
716.940	2893.385
717.068	2853.317
717.196	3047.279
717.324	2882.702
717.452	2858.106
717.580	2905.750
717.708	2815.702
717.837	2846.250
717.965	2869.644
718.093	2807.212
718.221	2844.529
718.349	2861.846
718.477	2766.356
718.605	2863.404
718.733	2776.712
718.862	2804.250
718.990	2736.413
719.118	2802.663
719.246	2705.817
719.374	2696.317
719.502	2755.827
719.630	2854.856
719.758	2685.865
719.887	2671.625
720.015	2685.433
720.143	2715.077
720.271	2636.558
720.399	2677.942
720.527	2636.308
720.655	2716.462
720.783	2620.875
720.912	2603.279
721.040	2616.500
721.168	2647.923
721.296	2568.942
721.424	2575.471
721.552	2560.048
721.680	2610.865
721.808	2574.769
721.937	2561.452
722.065	2580.298
722.193	2549.433
722.321	2556.904
722.449	2550.433
722.577	2504.231
722.705	2514.769
722.833	2530.106
722.962	2523.654
723.090	2499.106
723.218	2478.769
723.346	2498.500
723.474	2479.452
723.602	2454.231
723.730	2456.500
723.858	2443.365
723.987	2470.192
724.115	2450.029
724.243	2450.587
724.371	2419.202
724.499	2426.337
724.627	2398.731
724.755	2411.231
724.883	2428.740
725.012	2421.952
725.140	2397.837
725.268	2374.298
725.396	2357.058
725.524	2367.413
725.652	2336.837
725.780	2343.240
725.908	2328.596
726.037	2308.298
726.165	2303.577
726.293	2286.404
726.421	2293.308
726.549	2275.692
726.677	2266.587
726.805	2271.769
726.933	2261.375
727.062	2260.519
727.190	2233.269
727.318	2220.596
727.446	2218.279
727.574	2209.548
727.702	2176.462
727.830	2199.837
727.958	2190.413
728.087	2186.269
728.215	2176.538
728.343	2149.356
728.471	2154.904
728.599	2161.163
728.727	2135.981
728.855	2139.375
728.983	2104.115
729.112	2108.288
729.240	2108.029
729.368	2091.923
729.496	2084.596
729.624	2090.452
729.752	2072.423
729.880	2070.942
730.008	2059.481
730.137	2062.000
730.265	2058.635
730.393	2056.587
730.521	2038.212
730.649	2016.731
730.777	2012.952
730.905	2010.712
731.033	1980.962
731.162	2004.346
731.290	2014.615
731.418	1987.346
731.546	1981.327
731.674	1976.519
731.802	1963.125
731.930	1967.750
732.058	1943.317
732.187	1944.048
732.315	1944.279
732.443	1954.462
732.571	1941.250
732.699	1917.962
732.827	1934.202
732.955	1921.404
733.083	1910.981
733.212	1907.385
733.340	1913.346
733.468	1899.538
733.596	1873.548
733.724	1868.654
733.852	1860.337
733.980	1850.173
734.108	1875.702
734.237	1873.817
734.365	1859.644
734.493	1834.827
734.621	1844.048
734.749	1835.433
734.877	1832.096
735.005	1818.519
735.133	1834.048
735.262	1826.500
735.390	1799.654
735.518	1812.827
735.646	1808.596
735.774	1803.673
735.902	1790.798
736.030	1777.519
736.158	1783.202
736.287	1786.346
736.415	1778.087
736.543	1763.606
736.671	1755.029
736.799	1751.433
736.927	1775.250
737.055	1761.596
737.183	1725.856
737.312	1723.000
737.440	1728.115
737.568	1718.769
737.696	1723.817
737.824	1718.250
737.952	1915.000
738.080	1693.596
738.208	1696.231
738.337	1687.538
738.465	1693.462
738.593	1685.029
738.721	1666.712
738.849	1683.750
738.977	1660.731
739.105	1680.904
739.233	1672.663
739.362	1636.587
739.490	1635.019
739.618	1646.962
739.746	1635.712
739.874	1631.067
740.002	1632.337
740.130	1600.663
740.258	1605.144
740.387	1619.096
740.515	1612.856
740.643	1592.029
740.771	1599.327
740.899	1577.548
741.027	1586.490
741.155	1580.529
741.283	1579.644
741.412	1585.692
741.540	1558.212
741.668	1553.606
741.796	1549.510
741.924	1539.221
742.052	1542.769
742.180	1554.606
742.308	1518.596
742.437	1522.894
742.565	1529.644
742.693	1527.885
742.821	1521.760
742.949	1507.885
743.077	1485.490
743.205	1492.808
743.333	1471.721
743.462	1494.981
743.590	1475.538
743.718	1474.769
743.846	1472.308
743.974	1495.096
744.102	1454.663
744.230	1443.971
744.358	1474.644
744.487	1438.471
744.615	1428.481
744.743	1434.346
744.871	1429.827
744.999	1417.865
745.127	1429.096
745.255	1402.423
745.383	1407.567
745.512	1407.106
745.640	1391.567
745.768	1399.788
745.896	1401.663
746.024	1387.721
746.152	1400.115
746.280	1382.673
746.408	1379.894
746.537	1361.365
746.665	1384.173
746.793	1354.260
746.921	1352.971
747.049	1360.885
747.177	1350.019
747.305	1354.260
747.433	1345.510
747.562	1337.663
747.690	1345.702
747.818	1325.481
747.946	1336.096
748.074	1316.865
748.202	1318.212
748.330	1300.288
748.458	1295.942
748.587	1308.481
748.715	1310.087
748.843	1280.750
748.971	1281.288
749.099	1293.173
749.227	1290.769
749.355	1299.500
749.483	1253.144
749.612	1298.269
749.740	1282.038
749.868	1258.125
749.996	1264.567
750.124	1269.212
750.252	1243.433
750.380	1247.885
750.508	1261.010
750.637	1231.452
750.765	1233.596
750.893	1231.231
751.021	1226.663
751.149	1232.933
751.277	1213.538
751.405	1202.846
751.533	1231.990
751.662	1197.115
751.790	1196.913
751.918	1199.462
752.046	1196.058
752.174	1182.731
752.302	1181.885
752.430	1174.712
752.558	1164.846
752.687	1167.404
752.815	1169.740
752.943	1168.029
753.071	1149.962
753.199	1155.000
753.327	1175.327
753.455	1147.673
753.583	1133.798
753.712	1125.644
753.840	1137.260
753.968	1130.865
754.096	1136.221
754.224	1117.327
754.352	1114.269
754.480	1127.904
754.608	1111.654
754.737	1106.904
754.865	1113.000
754.993	1111.712
755.121	1095.981
755.249	1076.356
755.377	1064.500
755.505	1070.933
755.633	1066.260
755.762	1073.029
755.890	1085.913
756.018	1064.183
756.146	1050.462
756.274	1056.337
756.402	1056.587
756.530	1065.913
756.658	1051.404
756.787	1041.962
756.915	1034.673
757.043	1020.317
757.171	1036.394
757.299	1042.971
757.427	1012.269
757.555	1008.923
757.683	1013.125
757.812	1021.240
757.940	995.885
758.068	1009.971
758.196	1002.740
758.324	991.692
758.452	1001.990
758.580	1003.702
758.708	986.606
758.837	1005.885
758.965	995.942
759.093	989.885
759.221	967.933
759.349	963.067
759.477	955.154
759.605	949.385
759.733	974.346
759.862	951.596
759.990	946.808
760.118	943.635
760.246	948.394
760.374	949.740
760.502	946.740
760.630	927.385
760.758	928.231
760.887	936.606
761.015	925.962
761.143	930.462
761.271	924.298
761.399	914.769
761.527	927.038
761.655	930.769
761.783	904.846
761.912	894.615
762.040	911.038
762.168	882.404
762.296	892.038
762.424	896.596
762.552	897.250
762.680	870.760
762.808	900.212
762.937	872.260
763.065	855.990
763.193	872.260
763.321	858.038
763.449	859.442
763.577	848.231
763.705	867.481
763.833	856.462
763.962	841.654
764.090	842.106
764.218	841.615
764.346	837.644
764.474	837.394
764.602	830.471
764.730	832.721
764.858	832.567
764.987	832.375
765.115	827.769
765.243	807.442
765.371	819.048
765.499	807.481
765.627	812.740
765.755	815.712
765.883	804.404
766.012	802.942
766.140	790.183
766.268	793.769
766.396	797.356
766.524	795.635
766.652	778.740
766.780	783.192
766.908	786.577
767.037	797.327
767.165	782.615
767.293	782.317
767.421	780.087
767.549	762.163
767.677	786.740
767.805	764.981
767.933	770.394
768.062	758.212
768.190	762.019
768.318	758.240
768.446	756.731
768.574	745.413
768.702	762.106
768.830	750.856
768.958	745.327
769.087	751.635
769.215	747.865
769.343	740.394
769.471	751.856
769.599	733.173
769.727	743.692
769.855	725.125
769.983	754.962
770.112	732.692
770.240	719.558
770.368	715.894
770.496	725.769
770.624	729.423
770.752	709.942
770.880	724.346
771.008	714.567
771.137	707.865
771.265	701.519
771.393	696.635
771.521	701.577
771.649	716.433
771.777	731.077
771.905	748.904
772.033	734.740
772.162	685.077
772.290	692.019
772.418	696.615
772.546	688.144
772.674	695.356
772.802	685.587
772.930	693.231
773.058	683.356
773.187	675.096
773.315	676.702
773.443	674.856
773.571	678.875
773.699	663.798
773.827	681.990
773.955	693.952
774.083	678.452
774.212	664.087
774.340	663.587
774.468	653.942
774.596	658.183
774.724	665.481
774.852	664.529
774.980	647.933
775.108	655.577
775.237	644.010
775.365	648.942
775.493	654.885
775.621	640.750
775.749	648.135
775.877	655.288
776.005	653.385
776.133	635.529
776.262	643.885
776.390	634.644
776.518	625.125
776.646	638.865
776.774	632.750
776.902	626.750
777.030	629.990
777.158	629.087
777.287	644.413
777.415	624.721
777.543	624.462
777.671	622.721
777.799	627.135
777.927	623.135
778.055	623.471
778.183	611.587
778.312	611.971
778.440	612.615
778.568	626.308
778.696	624.298
778.824	620.202
778.952	615.192
779.080	609.596
779.208	607.837
779.337	608.250
779.465	612.308
779.593	594.500
779.721	606.385
779.849	605.702
779.977	597.519
780.105	598.500
780.233	595.904
780.362	596.500
780.490	586.673
780.618	602.346
780.746	588.260
780.874	586.404
781.002	585.404
781.130	584.740
781.258	570.846
781.387	589.192
781.515	583.250
781.643	574.327
781.771	581.202
781.899	584.442
782.027	578.904
782.155	570.481
782.283	570.019
782.412	576.442
782.540	578.077
782.668	565.663
782.796	567.510
782.924	588.990
783.052	575.798
783.180	561.038
783.308	565.288
783.437	559.096
783.565	565.000
783.693	568.029
783.821	567.760
783.949	556.394
784.077	553.625
784.205	559.317
784.333	558.846
784.462	561.923
784.590	548.250
784.718	545.385
784.846	554.327
784.974	558.779
785.102	540.279
785.230	548.317
785.358	540.288
785.487	536.087
785.615	538.798
785.743	536.885
785.871	551.260
785.999	546.346
786.127	537.875
786.255	526.673
786.383	533.308
786.512	535.779
786.640	534.760
786.768	526.490
786.896	530.317
787.024	516.144
787.152	521.048
787.280	543.731
787.408	529.721
787.537	533.183
787.665	534.058
787.793	519.731
787.921	515.087
788.049	518.000
788.177	518.875
788.305	510.558
788.433	513.183
788.562	513.962
788.690	503.981
788.818	513.144
788.946	512.615
789.074	505.010
789.202	503.404
789.330	499.933
789.458	507.202
789.587	502.269
789.715	505.933
789.843	511.990
789.971	502.673
790.099	491.606
790.227	495.000
790.355	495.433
790.483	498.462
790.612	499.240
790.740	501.856
790.868	484.769
790.996	506.394
791.124	499.606
791.252	495.481
791.380	480.904
791.508	485.981
791.637	490.471
791.765	475.308
791.893	480.981
792.021	481.471
792.149	481.817
792.277	485.288
792.405	474.077
792.533	483.538
792.662	473.279
792.790	475.731
792.918	484.096
793.046	470.067
793.174	470.721
793.302	473.327
793.430	469.154
793.558	472.606
793.687	468.019
793.815	463.385
793.943	478.904
794.071	464.125
794.199	461.538
794.327	462.721
794.455	471.615
794.583	463.221
794.712	463.298
794.840	460.115
794.968	460.923
795.096	472.692
795.224	444.337
795.352	493.971
795.480	451.683
795.608	452.452
795.737	445.212
795.865	439.760
795.993	452.548
796.121	445.346
796.249	439.163
796.377	443.548
796.505	445.058
796.633	447.500
796.762	431.894
796.890	436.125
797.018	437.240
797.146	446.058
797.274	447.346
797.402	431.529
797.530	424.125
797.658	429.125
797.787	441.788
797.915	431.952
798.043	425.404
798.171	427.019
798.299	421.712
798.427	426.010
798.555	438.385
798.683	423.019
798.812	456.481
798.940	466.587
799.068	454.260
799.196	429.990
799.324	426.865
799.452	415.087
799.580	417.173
799.708	418.048
799.837	415.587
799.965	410.933
800.093	410.837
800.221	409.231
800.349	406.990
800.477	404.462
800.605	401.779
800.733	413.471
800.862	408.077
800.990	403.298
801.118	399.846
801.246	402.202
801.374	407.048
801.502	399.529
801.630	398.404
801.758	399.308
801.887	391.212
802.015	400.952
802.143	386.952
802.271	393.529
802.399	391.317
802.527	389.702
802.655	393.240
802.783	391.010
802.912	383.846
803.040	381.740
803.168	382.087
803.296	394.788
803.424	380.087
803.552	389.346
803.680	383.231
803.808	380.500
803.937	379.413
804.065	384.154
804.193	383.538
804.321	398.144
804.449	393.077
804.577	383.942
804.705	394.413
804.833	376.183
804.962	372.106
805.090	379.990
805.218	370.356
805.346	366.683
805.474	381.346
805.602	374.154
805.730	389.827
805.858	366.817
805.987	367.481
806.115	366.365
806.243	372.183
806.371	366.192
806.499	361.971
806.627	357.212
806.755	364.673
806.883	366.000
807.012	361.019
807.140	364.567
807.268	353.548
807.396	355.654
807.524	355.635
807.652	369.404
807.780	364.942
807.908	360.625
808.037	368.433
808.165	360.702
808.293	346.962
808.421	354.500
808.549	349.779
808.677	354.212
808.805	370.115
808.933	350.298
809.062	353.019
809.190	361.644
809.318	354.250
809.446	342.837
809.574	361.663
809.702	345.096
809.830	341.481
809.958	353.981
810.087	348.163
810.215	345.365
810.343	351.106
810.471	344.135
810.599	338.971
810.727	345.615
810.855	339.615
810.983	340.663
811.112	340.529
811.240	340.087
811.368	339.413
811.496	343.308
811.624	339.144
811.752	342.433
811.880	353.558
812.008	347.298
812.137	351.702
812.265	341.471
812.393	338.087
812.521	331.654
812.649	335.067
812.777	331.010
812.905	341.990
813.033	344.048
813.162	327.510
813.290	326.317
813.418	332.615
813.546	328.212
813.674	324.769
813.802	325.240
813.930	325.231
814.058	321.163
814.187	333.769
814.315	324.808
814.443	319.635
814.571	326.865
814.699	317.135
814.827	322.000
814.955	328.413
815.083	318.250
815.212	322.894
815.340	315.115
815.468	327.865
815.596	319.625
815.724	318.808
815.852	321.942
815.980	312.942
816.108	314.702
816.237	313.250
816.365	320.538
816.493	309.663
816.621	321.317
816.749	301.510
816.877	371.769
817.005	329.635
817.133	317.423
817.262	312.596
817.390	299.471
817.518	317.798
817.646	300.769
817.774	300.500
817.902	297.538
818.030	305.106
818.158	308.731
818.287	303.423
818.415	299.462
818.543	296.596
818.671	300.173
818.799	298.558
818.927	296.683
819.055	321.019
819.183	305.260
819.312	314.423
819.440	294.837
819.568	291.500
819.696	297.673
819.824	292.269
819.952	293.087
820.080	292.750
820.208	290.760
820.337	299.971
820.465	287.279
820.593	291.048
820.721	290.817
820.849	288.577
820.977	291.106
821.105	296.452
821.233	282.577
821.362	294.135
821.490	286.115
821.618	289.490
821.746	302.365
821.874	284.865
822.002	277.625
822.130	284.173
822.258	285.644
822.387	283.923
822.515	292.173
822.643	284.096
822.771	278.298
822.899	287.490
823.027	273.875
823.155	285.808
823.283	293.644
823.412	293.788
823.540	272.731
823.668	270.577
823.796	276.606
823.924	273.385
824.052	280.587
824.180	279.019
824.308	277.952
824.437	286.212
824.565	277.519
824.693	266.750
824.821	266.587
824.949	275.452
825.077	274.212
825.205	263.981
825.333	271.471
825.462	273.240
825.590	269.798
825.718	265.875
825.846	267.490
825.974	271.490
826.102	267.548
826.230	273.837
826.358	274.442
826.487	270.288
826.615	266.442
826.743	259.635
826.871	267.846
826.999	262.462
827.127	269.048
827.255	264.269
827.383	260.308
827.512	260.596
827.640	269.269
827.768	280.788
827.896	254.875
828.024	266.615
828.152	260.529
828.280	259.702
828.408	256.375
828.537	256.135
828.665	260.990
828.793	261.990
828.921	261.019
829.049	258.442
829.177	256.538
829.305	256.212
829.433	262.442
829.562	254.231
829.690	260.269
829.818	257.558
829.946	253.625
830.074	253.173
830.202	251.163
830.330	261.596
830.458	245.644
830.587	261.260
830.715	248.567
830.843	250.673
830.971	255.394
831.099	252.990
831.227	278.942
831.355	246.029
831.483	252.577
831.612	251.519
831.740	247.904
831.868	248.231
831.996	256.837
832.124	248.029
832.252	258.038
832.380	248.385
832.508	248.481
832.637	246.990
832.765	254.269
832.893	252.442
833.021	244.817
833.149	244.577
833.277	246.712
833.405	248.337
833.533	244.048
833.662	243.106
833.790	239.048
833.918	247.163
834.046	239.663
834.174	237.048
834.302	244.904
834.430	237.567
834.558	239.115
834.687	246.769
834.815	239.952
834.943	237.183
835.071	242.673
835.199	240.144
835.327	234.673
835.455	246.769
835.583	233.327
835.712	235.192
835.840	240.173
835.968	229.923
836.096	240.885
836.224	233.798
836.352	241.471
836.480	231.740
836.608	233.750
836.737	235.567
836.865	230.654
836.993	238.510
837.121	241.923
837.249	240.942
837.377	229.106
837.505	224.106
837.633	231.385
837.762	229.663
837.890	229.538
838.018	230.433
838.146	225.702
838.274	230.567
838.402	225.173
838.530	240.471
838.658	230.462
838.787	239.192
838.915	222.654
839.043	235.346
839.171	224.212
839.299	229.346
839.427	248.894
839.555	231.548
839.683	221.327
839.812	227.115
839.940	222.817
840.068	224.788
840.196	250.173
840.324	243.625
840.452	234.288
840.580	221.769
840.708	215.596
840.837	226.317
840.965	221.365
841.093	221.673
841.221	223.740
841.349	223.760
841.477	213.231
841.605	216.240
841.733	217.433
841.862	228.462
841.990	218.875
842.118	216.721
842.246	220.673
842.374	212.125
842.502	228.952
842.630	220.683
842.758	212.962
842.887	225.221
843.015	234.558
843.143	215.865
843.271	213.721
843.399	217.192
843.527	218.144
843.655	214.663
843.783	212.990
843.912	211.250
844.040	207.519
844.168	212.548
844.296	228.365
844.424	222.327
844.552	213.923
844.680	216.538
844.808	213.000
844.937	214.308
845.065	209.971
845.193	229.529
845.321	216.837
845.449	224.587
845.577	212.817
845.705	210.019
845.833	207.606
845.962	221.644
846.090	211.096
846.218	222.971
846.346	218.952
846.474	210.875
846.602	207.000
846.730	211.481
846.858	207.279
846.987	205.135
847.115	212.288
847.243	216.510
847.371	200.673
847.499	205.010
847.627	207.827
847.755	204.144
847.883	214.337
848.012	215.163
848.140	199.625
848.268	200.904
848.396	207.452
848.524	214.375
848.652	202.721
848.780	198.952
848.908	205.894
849.037	205.058
849.165	200.077
849.293	209.558
849.421	204.442
849.549	201.644
849.677	204.442
849.805	210.952
849.933	200.038
850.062	207.106
850.190	203.625
850.318	201.106
850.446	206.000
850.574	204.452
850.702	203.000
850.830	197.798
850.958	199.202
851.087	204.125
851.215	193.990
851.343	200.029
851.471	197.971
851.599	208.317
851.727	214.317
851.855	199.471
851.983	203.942
852.112	196.019
852.240	207.260
852.368	209.192
852.496	198.029
852.624	202.538
852.752	206.077
852.880	199.740
853.008	200.433
853.137	201.260
853.265	200.029
853.393	195.798
853.521	192.077
853.649	205.683
853.777	195.971
853.905	191.519
854.033	192.471
854.162	192.500
854.290	190.952
854.418	210.010
854.546	224.625
854.674	211.308
854.802	200.317
854.930	188.288
855.058	199.317
855.187	190.952
855.315	219.673
855.443	189.529
855.571	190.471
855.699	199.750
855.827	186.769
855.955	190.135
856.083	194.683
856.212	193.673
856.340	195.433
856.468	190.702
856.596	193.471
856.724	195.654
856.852	206.548
856.980	188.692
857.108	184.596
857.237	183.308
857.365	200.798
857.493	192.798
857.621	193.385
857.749	185.558
857.877	186.202
858.005	184.606
858.133	189.712
858.262	184.769
858.390	184.500
858.518	185.981
858.646	195.298
858.774	184.510
858.902	184.538
859.030	187.740
859.158	193.490
859.287	188.625
859.415	189.606
859.543	184.510
859.671	192.365
859.799	194.875
859.927	182.837
860.055	181.798
860.183	178.471
860.312	184.288
860.440	186.144
860.568	176.096
860.696	191.904
860.824	195.865
860.952	183.250
861.080	185.519
861.208	186.433
861.337	183.010
861.465	193.038
861.593	187.135
861.721	189.106
861.849	188.413
861.977	181.981
862.105	184.163
862.233	181.856
862.362	181.173
862.490	178.067
862.618	178.490
862.746	182.442
862.874	184.865
863.002	184.971
863.130	184.087
863.258	185.212
863.387	188.298
863.515	183.692
863.643	188.981
863.771	182.798
863.899	183.923
864.027	187.394
864.155	207.721
864.283	179.500
864.412	174.663
864.540	183.163
864.668	175.308
864.796	177.510
864.924	177.125
865.052	174.923
865.180	194.731
865.308	179.740
865.437	181.865
865.565	173.519
865.693	177.221
865.821	174.971
865.949	195.548
866.077	182.769
866.205	177.529
866.333	181.212
866.462	171.817
866.590	184.202
866.718	178.010
866.846	169.750
866.974	178.019
867.102	172.750
867.230	185.721
867.358	176.721
867.487	182.962
867.615	188.673
867.743	174.471
867.871	184.596
867.999	179.000
868.127	185.596
868.255	189.981
868.383	170.423
868.512	178.577
868.640	175.346
868.768	173.615
868.896	185.250
869.024	172.817
869.152	173.385
869.280	169.865
869.408	173.529
869.537	174.452
869.665	172.096
869.793	176.010
869.921	173.317
870.049	167.404
870.177	174.538
870.305	172.029
870.433	172.038
870.562	178.615
870.690	173.894
870.818	181.240
870.946	167.635
871.074	166.288
871.202	173.144
871.330	168.423
871.458	173.740
871.587	172.423
871.715	174.115
871.843	175.490
871.971	180.692
872.099	162.327
872.227	171.731
872.355	173.558
872.483	170.221
872.612	175.971
872.740	171.471
872.868	169.962
872.996	173.240
873.124	178.923
873.252	171.654
873.380	162.452
873.508	178.048
873.637	176.375
873.765	164.692
873.893	165.433
874.021	169.913
874.149	167.577
874.277	169.269
874.405	172.288
874.533	176.587
874.662	165.635
874.790	171.663
874.918	164.240
875.046	172.981
875.174	167.077
875.302	166.942
875.430	168.712
875.558	170.212
875.687	174.952
875.815	170.827
875.943	171.798
876.071	173.087
876.199	170.779
876.327	169.288
876.455	170.683
876.583	165.952
876.712	179.029
876.840	170.462
876.968	168.413
877.096	169.192
877.224	169.058
877.352	161.721
877.480	167.019
877.608	176.288
877.737	169.029
877.865	166.731
877.993	168.731
878.121	171.769
878.249	166.875
878.377	166.317
878.505	170.933
878.633	171.731
878.762	163.904
878.890	165.298
879.018	172.529
879.146	165.337
879.274	191.308
879.402	169.058
879.530	167.029
879.658	168.029
879.787	166.798
879.915	164.952
880.043	165.106
880.171	202.000
880.299	170.481
880.427	172.990
880.555	163.837
880.683	170.077
880.812	168.356
880.940	165.221
881.068	171.481
881.196	163.635
881.324	163.500
881.452	164.471
881.580	168.337
881.708	174.394
881.837	169.404
881.965	165.163
882.093	159.788
882.221	163.558
882.349	160.529
882.477	164.385
882.605	167.106
882.733	169.644
882.862	164.077
882.990	173.692
883.118	173.327
883.246	175.510
883.374	168.058
883.502	176.538
883.630	171.615
883.758	164.077
883.887	172.192
884.015	170.096
884.143	171.663
884.271	164.442
884.399	160.221
884.527	167.538
884.655	163.163
884.783	168.923
884.912	189.048
885.040	173.971
885.168	160.029
885.296	170.462
885.424	164.837
885.552	164.625
885.680	179.163
885.808	169.663
885.937	172.346
886.065	171.856
886.193	164.615
886.321	165.038
886.449	162.625
886.577	163.923
886.705	174.846
886.833	157.894
886.962	166.692
887.090	166.962
887.218	164.731
887.346	162.183
887.474	160.337
887.602	165.125
887.730	156.865
887.858	160.308
887.987	161.567
888.115	167.144
888.243	161.019
888.371	175.712
888.499	163.279
888.627	162.269
888.755	172.010
888.883	163.837
889.012	165.048
889.140	160.904
889.268	166.279
889.396	156.808
889.524	166.240
889.652	154.692
889.780	160.317
889.908	160.962
890.037	166.510
890.165	160.856
890.293	167.817
890.421	164.750
890.549	154.788
890.677	154.721
890.805	165.163
890.933	159.356
891.062	157.481
891.190	163.740
891.318	158.894
891.446	161.856
891.574	157.654
891.702	160.269
891.830	163.000
891.958	173.692
892.087	165.692
892.215	165.192
892.343	164.365
892.471	168.933
892.599	155.317
892.727	166.558
892.855	178.750
892.983	152.721
893.112	159.423
893.240	167.385
893.368	156.279
893.496	170.077
893.624	166.173
893.752	181.615
893.880	166.567
894.008	163.115
894.137	157.933
894.265	166.894
894.393	164.077
894.521	168.673
894.649	164.356
894.777	157.212
894.905	198.913
895.033	158.202
895.162	160.375
895.290	170.144
895.418	164.106
895.546	191.394
895.674	167.385
895.802	202.894
895.930	165.250
896.058	156.913
896.187	162.106
896.315	158.058
896.443	169.827
896.571	186.087
896.699	156.644
896.827	162.865
896.955	161.144
897.083	166.827
897.212	163.798
897.340	159.558
897.468	163.308
897.596	162.346
897.724	159.231
897.852	157.817
897.980	155.433
898.108	169.538
898.237	161.202
898.365	161.827
898.493	165.885
898.621	159.423
898.749	159.923
898.877	161.942
899.005	159.567
899.133	159.846
899.262	172.529
899.390	159.442
899.518	165.394
899.646	162.587
899.774	155.115
899.902	156.115
900.030	173.010
900.158	162.115
900.287	163.817
900.415	156.952
900.543	163.250
900.671	167.231
900.799	158.048
900.927	157.596
901.055	173.096
901.183	168.587
901.312	168.221
901.440	154.712
901.568	156.298
901.696	162.077
901.824	158.087
901.952	159.125
902.080	165.183
902.208	160.240
902.337	165.433
902.465	160.115
902.593	171.625
902.721	184.856
902.849	178.740
902.977	166.240
903.105	160.894
903.233	163.913
903.362	155.375
903.490	166.019
903.618	161.510
903.746	157.356
903.874	160.750
904.002	157.490
904.130	172.173
904.258	152.135
904.387	167.346
904.515	155.827
904.643	163.923
904.771	159.337
904.899	160.529
905.027	162.058
905.155	159.500
905.283	153.029
905.412	172.096
905.540	163.962
905.668	160.048
905.796	159.933
905.924	157.404
906.052	163.365
906.180	163.904
906.308	161.673
906.437	157.596
906.565	161.750
906.693	168.721
906.821	156.442
906.949	160.298
907.077	154.115
907.205	166.096
907.333	155.490
907.462	155.894
907.590	159.096
907.718	158.827
907.846	164.827
907.974	157.317
908.102	159.587
908.230	162.163
908.358	161.529
908.487	155.010
908.615	168.058
908.743	171.433
908.871	161.865
908.999	157.135
909.127	160.779
909.255	170.952
909.383	156.317
909.512	155.269
909.640	173.817
909.768	160.154
909.896	164.615
910.024	165.981
910.152	169.837
910.280	168.308
910.408	155.337
910.537	158.615
910.665	167.029
910.793	162.875
910.921	169.067
911.049	173.135
911.177	171.750
911.305	162.394
911.433	187.452
911.562	167.798
911.690	167.106
911.818	164.067
911.946	163.856
912.074	170.000
912.202	162.163
912.330	181.087
912.458	159.962
912.587	166.404
912.715	168.750
912.843	175.462
912.971	172.058
913.099	183.183
913.227	171.702
913.355	169.942
913.483	178.548
913.612	173.760
913.740	195.356
913.868	171.740
