sample1u_at_750.00nm_cut_at_1200.50Y_01.dat
19.06.2023
10:47:04
cut middle at Y: 1200.50
top cursor: 1249 down cursor: 1152 mean of: 97 lines , 2560 datapoints
wavelength(nm)	intensity[arb. units]
585.996	3235.371
586.124	3117.433
586.252	3090.876
586.380	3122.134
586.508	3124.216
586.637	3151.000
586.765	3102.876
586.893	3117.351
587.021	3189.010
587.149	3119.412
587.277	3121.856
587.405	3128.608
587.533	3154.680
587.662	3221.258
587.790	3166.186
587.918	3169.072
588.046	3144.680
588.174	3167.052
588.302	3168.041
588.430	3155.845
588.558	3192.000
588.687	3189.814
588.815	3166.485
588.943	3195.041
589.071	3155.557
589.199	3201.804
589.327	3202.515
589.455	3296.660
589.583	3245.835
589.712	3214.887
589.840	3202.216
589.968	3213.567
590.096	3217.928
590.224	3198.701
590.352	3227.175
590.480	3187.216
590.608	3241.928
590.737	3226.175
590.865	3359.639
590.993	3212.216
591.121	3293.515
591.249	3245.309
591.377	3221.907
591.505	3372.804
591.633	3278.742
591.762	3244.742
591.890	3259.258
592.018	3383.351
592.146	3248.959
592.274	3288.619
592.402	3254.670
592.530	3464.732
592.658	3331.557
592.787	3306.247
592.915	3349.443
593.043	3274.701
593.171	3312.186
593.299	3316.505
593.427	3316.134
593.555	3331.753
593.683	3345.557
593.812	3332.794
593.940	3341.175
594.068	3330.392
594.196	3323.340
594.324	3358.010
594.452	3548.309
594.580	3375.773
594.708	3431.866
594.837	3394.175
594.965	3485.351
595.093	3385.072
595.221	3441.474
595.349	3423.031
595.477	3442.052
595.605	3442.474
595.733	3462.753
595.862	3480.505
595.990	3500.660
596.118	3539.392
596.246	3589.010
596.374	3485.515
596.502	3494.062
596.630	3513.577
596.758	3504.835
596.887	3508.711
597.015	3509.062
597.143	3537.227
597.271	3543.443
597.399	3558.278
597.527	3517.495
597.655	3536.237
597.783	3535.412
597.912	3543.577
598.040	3550.289
598.168	3526.990
598.296	3477.093
598.424	3685.660
598.552	3518.381
598.680	3525.701
598.808	3553.093
598.937	3525.990
599.065	3539.814
599.193	3594.629
599.321	3561.309
599.449	3528.577
599.577	3552.412
599.705	3583.536
599.833	3540.000
599.962	3520.227
600.090	3579.206
600.218	3581.990
600.346	3548.320
600.474	3541.753
600.602	3531.567
600.730	3522.340
600.858	3536.907
600.987	3593.629
601.115	3568.649
601.243	3631.763
601.371	3664.856
601.499	3657.639
601.627	3612.155
601.755	3603.742
601.883	3675.144
602.012	3583.763
602.140	3683.433
602.268	3647.371
602.396	3775.814
602.524	3635.928
602.652	3712.825
602.780	3680.299
602.908	3707.753
603.037	3736.918
603.165	3745.691
603.293	3737.969
603.421	3738.454
603.549	3769.773
603.677	3803.258
603.805	3773.402
603.933	3784.330
604.062	3831.206
604.190	3842.629
604.318	3850.258
604.446	3824.639
604.574	3917.021
604.702	3943.825
604.830	3887.649
604.958	3888.175
605.087	3929.928
605.215	3948.835
605.343	4027.639
605.471	3953.103
605.599	3990.412
605.727	4043.165
605.855	3974.186
605.983	4018.495
606.112	4039.423
606.240	4047.938
606.368	4034.959
606.496	4007.567
606.624	4117.340
606.752	4048.990
606.880	4100.784
607.008	4032.722
607.137	4052.000
607.265	4142.124
607.393	4071.093
607.521	4161.763
607.649	4086.711
607.777	4104.742
607.905	4129.361
608.033	4076.773
608.162	4150.247
608.290	4113.536
608.418	4232.546
608.546	4197.959
608.674	4204.309
608.802	4145.485
608.930	4149.990
609.058	4105.144
609.187	4117.165
609.315	4135.814
609.443	4137.309
609.571	4266.340
609.699	4139.567
609.827	4248.557
609.955	4188.773
610.083	4135.381
610.212	4148.660
610.340	4169.320
610.468	4170.041
610.596	4170.113
610.724	4152.711
610.852	4237.742
610.980	4195.052
611.108	4159.876
611.237	4146.299
611.365	4167.546
611.493	4182.299
611.621	4154.536
611.749	4222.464
611.877	4258.464
612.005	4207.072
612.133	4268.309
612.262	4226.918
612.390	4303.897
612.518	4294.289
612.646	4216.443
612.774	4305.732
612.902	4317.443
613.030	4282.835
613.158	4331.918
613.287	4407.649
613.415	4281.443
613.543	4338.588
613.671	4381.639
613.799	4353.103
613.927	4392.021
614.055	4402.289
614.183	4423.701
614.312	4403.062
614.440	4529.021
614.568	4461.454
614.696	4468.856
614.824	4438.433
614.952	4478.784
615.080	4474.629
615.208	4506.247
615.337	4602.598
615.465	4493.773
615.593	4555.639
615.721	4529.227
615.849	4603.660
615.977	4558.897
616.105	4576.392
616.233	4567.938
616.362	4624.485
616.490	4595.495
616.618	4627.711
616.746	4704.773
616.874	4649.515
617.002	4675.237
617.130	4666.629
617.258	4638.608
617.387	4647.742
617.515	4692.835
617.643	4684.196
617.771	4763.093
617.899	4700.082
618.027	4750.062
618.155	4747.794
618.283	4734.485
618.412	4746.165
618.540	4796.856
618.668	4740.289
618.796	4775.536
618.924	4746.515
619.052	4807.546
619.180	4762.351
619.308	4791.443
619.437	4821.402
619.565	4803.093
619.693	4813.412
619.821	4848.474
619.949	4804.938
620.077	4846.052
620.205	4866.361
620.333	4892.691
620.462	4841.227
620.590	4843.464
620.718	4871.732
620.846	4889.031
620.974	4883.515
621.102	4914.701
621.230	4907.546
621.358	5051.866
621.487	4895.381
621.615	4981.505
621.743	4876.433
621.871	4965.464
621.999	4881.134
622.127	4914.515
622.255	4903.959
622.383	4917.969
622.512	4905.567
622.640	4911.216
622.768	4962.155
622.896	5046.278
623.024	5012.320
623.152	4966.000
623.280	5021.072
623.408	4957.866
623.537	4976.608
623.665	4938.423
623.793	4988.876
623.921	5018.392
624.049	5015.010
624.177	4996.031
624.305	5005.237
624.433	5034.845
624.562	5034.588
624.690	5165.753
624.818	4975.175
624.946	5051.206
625.074	5031.320
625.202	5008.639
625.330	5058.330
625.458	5149.062
625.587	5040.732
625.715	5098.113
625.843	5067.072
625.971	5097.495
626.099	5104.887
626.227	5137.876
626.355	5074.577
626.483	5170.216
626.612	5072.918
626.740	5126.155
626.868	5100.062
626.996	5164.454
627.124	5115.670
627.252	5098.371
627.380	5141.196
627.508	5126.433
627.637	5176.536
627.765	5159.299
627.893	5205.289
628.021	5278.495
628.149	5163.031
628.277	5293.309
628.405	5204.608
628.533	5233.155
628.662	5264.711
628.790	5325.309
628.918	5244.175
629.046	5388.856
629.174	5247.206
629.302	5326.206
629.430	5222.619
629.558	5301.278
629.687	5265.227
629.815	5332.990
629.943	5406.598
630.071	5354.186
630.199	5334.887
630.327	5361.660
630.455	5393.732
630.583	5364.134
630.712	5401.454
630.840	5454.660
630.968	5424.093
631.096	5387.959
631.224	5420.381
631.352	5557.835
631.480	5449.969
631.608	5642.216
631.737	5461.186
631.865	5612.309
631.993	5578.268
632.121	5663.515
632.249	5524.247
632.377	5528.381
632.505	5511.588
632.633	5535.701
632.762	5490.196
632.890	5527.237
633.018	5543.598
633.146	5538.969
633.274	5528.814
633.402	5613.052
633.530	5542.485
633.658	5575.216
633.787	5564.474
633.915	5539.753
634.043	5566.742
634.171	5637.175
634.299	5595.907
634.427	5525.588
634.555	5832.918
634.683	5591.474
634.812	5619.495
634.940	5583.113
635.068	5586.526
635.196	5582.577
635.324	5563.526
635.452	5613.588
635.580	5706.320
635.708	5571.948
635.837	5595.227
635.965	5583.660
636.093	5579.701
636.221	5594.918
636.349	5521.866
636.477	5562.371
636.605	5582.258
636.733	5522.464
636.862	5557.289
636.990	5593.443
637.118	5557.052
637.246	5556.340
637.374	5716.825
637.502	5519.062
637.630	5545.598
637.758	5570.021
637.887	5484.423
638.015	5658.845
638.143	5542.918
638.271	5529.021
638.399	5590.680
638.527	5510.649
638.655	5559.918
638.783	5546.649
638.912	5614.732
639.040	5536.773
639.168	5542.897
639.296	5542.773
639.424	5611.753
639.552	5578.546
639.680	5604.268
639.808	5582.052
639.937	5536.825
640.065	5505.897
640.193	5532.175
640.321	5638.598
640.449	5628.361
640.577	5536.155
640.705	5545.268
640.833	5561.969
640.962	5638.856
641.090	5518.402
641.218	5549.588
641.346	5651.753
641.474	5550.423
641.602	5563.320
641.730	5559.454
641.858	5511.763
641.987	5528.433
642.115	5745.742
642.243	5598.464
642.371	5747.773
642.499	5628.474
642.627	5670.876
642.755	5590.289
642.883	5630.454
643.012	5634.433
643.140	5704.649
643.268	5694.309
643.396	5627.784
643.524	5654.299
643.652	5750.227
643.780	5638.876
643.908	5601.557
644.037	5766.887
644.165	5765.031
644.293	5873.247
644.421	5654.876
644.549	5736.320
644.677	5770.773
644.805	5727.371
644.933	5688.268
645.062	5715.278
645.190	5852.247
645.318	5727.918
645.446	5676.866
645.574	5643.433
645.702	5775.505
645.830	5730.289
645.958	5693.186
646.087	5678.021
646.215	5660.639
646.343	5656.103
646.471	5846.392
646.599	5675.825
646.727	5668.227
646.855	5667.897
646.983	5673.938
647.112	5742.598
647.240	5668.918
647.368	5757.784
647.496	5670.546
647.624	5691.454
647.752	5671.660
647.880	5624.948
648.008	5674.536
648.137	5686.876
648.265	5645.742
648.393	5733.330
648.521	5636.320
648.649	5759.918
648.777	5702.144
648.905	5653.660
649.033	5723.062
649.162	5624.052
649.290	5599.722
649.418	5617.711
649.546	5797.907
649.674	5584.454
649.802	5587.320
649.930	5557.268
650.058	5522.505
650.187	5577.742
650.315	5550.186
650.443	5561.639
650.571	5564.165
650.699	5506.454
650.827	5519.804
650.955	5493.588
651.083	5597.443
651.212	5467.371
651.340	5558.629
651.468	5485.856
651.596	5551.928
651.724	5532.948
651.852	5489.794
651.980	5476.124
652.108	5502.567
652.237	5470.948
652.365	5437.691
652.493	5436.412
652.621	5414.546
652.749	5459.969
652.877	5412.402
653.005	5458.052
653.133	5380.814
653.262	5367.948
653.390	5373.289
653.518	5559.546
653.646	5372.711
653.774	5339.505
653.902	5453.567
654.030	5372.392
654.158	5311.649
654.287	5396.227
654.415	5377.237
654.543	5358.309
654.671	5310.546
654.799	5318.876
654.927	5291.680
655.055	5279.660
655.183	5282.134
655.312	5258.072
655.440	5274.876
655.568	5219.928
655.696	5315.299
655.824	5242.918
655.952	5233.557
656.080	5228.990
656.208	5228.165
656.337	5243.124
656.465	5353.948
656.593	5206.041
656.721	5277.763
656.849	5311.206
656.977	5132.515
657.105	5171.186
657.233	5197.918
657.362	5233.794
657.490	5167.186
657.618	5172.546
657.746	5152.938
657.874	5141.247
658.002	5132.804
658.130	5127.814
658.258	5143.711
658.387	5065.485
658.515	5074.887
658.643	5082.577
658.771	5147.691
658.899	5057.495
659.027	5086.000
659.155	5045.134
659.283	5022.753
659.412	5044.289
659.540	5042.000
659.668	5078.948
659.796	5119.021
659.924	5048.031
660.052	5099.361
660.180	4974.598
660.308	5037.062
660.437	5029.907
660.565	5000.072
660.693	4969.567
660.821	5151.216
660.949	4941.412
661.077	4984.629
661.205	5129.567
661.333	4964.629
661.462	4905.186
661.590	5051.670
661.718	4961.206
661.846	4973.186
661.974	4910.814
662.102	4933.557
662.230	4975.093
662.358	4860.948
662.487	4930.309
662.615	4900.268
662.743	4936.165
662.871	4867.918
662.999	4838.412
663.127	4834.918
663.255	4863.804
663.383	4973.268
663.512	4806.289
663.640	4879.515
663.768	4884.546
663.896	4805.278
664.024	4846.010
664.152	4795.722
664.280	4903.598
664.408	4771.144
664.537	4780.928
664.665	4801.361
664.793	4795.856
664.921	4751.567
665.049	4854.773
665.177	4760.237
665.305	4789.443
665.433	4779.031
665.562	4897.227
665.690	4762.330
665.818	4895.701
665.946	4716.722
666.074	4705.979
666.202	4727.113
666.330	4676.588
666.458	4740.969
666.587	4659.000
666.715	4701.423
666.843	4662.268
666.971	4705.474
667.099	4741.897
667.227	4762.237
667.355	4741.722
667.483	4656.464
667.612	4660.454
667.740	4687.381
667.868	4621.072
667.996	4623.474
668.124	4673.639
668.252	4734.907
668.380	4617.763
668.508	4638.474
668.637	4658.515
668.765	4659.402
668.893	4658.309
669.021	4551.361
669.149	4660.454
669.277	4550.351
669.405	4680.062
669.533	4621.742
669.662	4548.093
669.790	4556.536
669.918	4594.649
670.046	4706.928
670.174	4508.505
670.302	4486.124
670.430	4482.103
670.558	4535.928
670.687	4660.526
670.815	4501.155
670.943	4508.557
671.071	4425.247
671.199	4439.670
671.327	4436.289
671.455	4417.093
671.583	4416.330
671.712	4405.361
671.840	4469.216
671.968	4552.649
672.096	4549.887
672.224	4332.938
672.352	4334.876
672.480	4285.371
672.608	4378.402
672.737	4321.247
672.865	4265.052
672.993	4294.928
673.121	4273.928
673.249	4276.175
673.377	4231.876
673.505	4233.897
673.633	4260.784
673.762	4174.907
673.890	4220.742
674.018	4230.897
674.146	4174.990
674.274	4166.918
674.402	4218.423
674.530	4172.278
674.658	4141.536
674.787	4119.268
674.915	4244.969
675.043	4116.773
675.171	4142.485
675.299	4111.309
675.427	4074.804
675.555	4053.320
675.683	4088.763
675.812	4038.289
675.940	4021.546
676.068	3985.711
676.196	4036.907
676.324	3963.464
676.452	3958.052
676.580	3925.330
676.708	3939.000
676.837	3929.825
676.965	4035.392
677.093	4059.258
677.221	3944.918
677.349	3875.216
677.477	3974.825
677.605	3880.753
677.733	3876.619
677.862	3884.763
677.990	3881.278
678.118	3914.897
678.246	3859.175
678.374	3902.825
678.502	3835.753
678.630	3785.835
678.758	3830.433
678.887	3946.381
679.015	3746.557
679.143	3756.412
679.271	3732.423
679.399	3766.330
679.527	3774.227
679.655	3810.175
679.783	3701.062
679.912	3708.423
680.040	3890.474
680.168	3723.423
680.296	3720.052
680.424	3701.082
680.552	3651.443
680.680	3645.773
680.808	3631.268
680.937	3627.247
681.065	3699.928
681.193	3628.938
681.321	3591.309
681.449	3650.608
681.577	3611.742
681.705	3568.443
681.833	3608.000
681.962	3581.247
682.090	3544.784
682.218	3591.588
682.346	3600.237
682.474	3525.124
682.602	3541.608
682.730	3576.351
682.858	3499.330
682.987	3532.072
683.115	3562.804
683.243	3525.031
683.371	3513.000
683.499	3489.567
683.627	3533.856
683.755	3508.443
683.883	3480.639
684.012	3506.165
684.140	3458.649
684.268	3472.876
684.396	3527.794
684.524	3456.835
684.652	3477.072
684.780	3471.155
684.908	3475.887
685.037	3483.804
685.165	3463.216
685.293	3521.753
685.421	3465.010
685.549	3460.175
685.677	3417.619
685.805	3472.536
685.933	3440.000
686.062	3459.814
686.190	3405.990
686.318	3427.299
686.446	3394.216
686.574	3376.268
686.702	3467.103
686.830	3389.165
686.958	3444.918
687.087	3350.711
687.215	3381.052
687.343	3388.938
687.471	3523.041
687.599	3329.742
687.727	3317.258
687.855	3306.124
687.983	3303.165
688.112	3377.629
688.240	3304.670
688.368	3334.454
688.496	3302.722
688.624	3288.402
688.752	3456.825
688.880	3297.845
689.008	3283.680
689.137	3295.784
689.265	3253.216
689.393	3262.907
689.521	3231.320
689.649	3346.258
689.777	3272.237
689.905	3310.794
690.033	3188.948
690.162	3210.515
690.290	3239.072
690.418	3166.206
690.546	3211.423
690.674	3212.567
690.802	3238.041
690.930	3197.608
691.058	3169.495
691.187	3158.876
691.315	3115.186
691.443	3130.938
691.571	3168.052
691.699	3108.557
691.827	3095.175
691.955	3117.670
692.083	3071.722
692.212	3107.722
692.340	3089.938
692.468	3118.959
692.596	3086.515
692.724	3056.227
692.852	3069.928
692.980	3096.072
693.108	3125.351
693.237	3017.052
693.365	3006.371
693.493	2988.433
693.621	3033.021
693.749	2966.340
693.877	3044.753
694.005	2958.814
694.133	2966.227
694.262	3024.227
694.390	2916.897
694.518	2945.258
694.646	2933.557
694.774	2908.392
694.902	2925.804
695.030	2902.835
695.158	2903.268
695.287	2942.629
695.415	2889.773
695.543	2922.464
695.671	2865.753
695.799	2974.825
695.927	2865.959
696.055	2893.639
696.183	2857.216
696.312	3015.216
696.440	2866.031
696.568	2866.165
696.696	2777.474
696.824	2782.340
696.952	2795.423
697.080	2799.402
697.208	2767.670
697.337	2792.773
697.465	2778.804
697.593	2732.649
697.721	2855.443
697.849	2751.557
697.977	2784.835
698.105	2798.619
698.233	2778.918
698.362	2714.423
698.490	2825.557
698.618	2680.062
698.746	2688.753
698.874	2742.742
699.002	2710.732
699.130	2713.000
699.258	2703.412
699.387	2660.093
699.515	2693.227
699.643	2691.825
699.771	2720.742
699.899	2668.155
700.027	2627.196
700.155	2685.258
700.283	2617.546
700.412	2610.866
700.540	2665.072
700.668	2649.773
700.796	2610.557
700.924	2607.515
701.052	2600.041
701.180	2590.124
701.308	2559.928
701.437	2554.680
701.565	2566.825
701.693	2546.196
701.821	2589.216
701.949	2532.515
702.077	2537.897
702.205	2556.237
702.333	2532.887
702.462	2509.680
702.590	2510.402
702.718	2480.464
702.846	2512.784
702.974	2473.649
703.102	2472.876
703.230	2464.247
703.358	2443.577
703.487	2443.062
703.615	2446.907
703.743	2421.742
703.871	2427.814
703.999	2419.784
704.127	2391.320
704.255	2397.206
704.383	2385.495
704.512	2384.175
704.640	2369.691
704.768	2361.309
704.896	2357.237
705.024	2335.691
705.152	2323.340
705.280	2349.732
705.408	2316.546
705.537	2306.918
705.665	2317.052
705.793	2287.979
705.921	2300.433
706.049	2272.990
706.177	2267.990
706.305	2280.608
706.433	2256.763
706.562	2265.216
706.690	2257.041
706.818	2256.062
706.946	2230.670
707.074	2244.021
707.202	2207.691
707.330	2206.237
707.458	2226.969
707.587	2206.134
707.715	2195.794
707.843	2182.464
707.971	2191.124
708.099	2165.165
708.227	2185.144
708.355	2175.237
708.483	2173.454
708.612	2166.804
708.740	2146.866
708.868	2152.000
708.996	2127.732
709.124	2137.289
709.252	2141.175
709.380	2132.062
709.508	2103.062
709.637	2113.649
709.765	2091.268
709.893	2093.639
710.021	2097.454
710.149	2108.072
710.277	2086.206
710.405	2083.856
710.533	2072.454
710.662	2064.155
710.790	2078.784
710.918	2052.371
711.046	2068.866
711.174	2063.206
711.302	2047.959
711.430	2051.876
711.558	2058.371
711.687	2049.443
711.815	2039.588
711.943	2038.701
712.071	2029.103
712.199	2014.165
712.327	1997.773
712.455	2023.381
712.583	2020.330
712.712	2011.794
712.840	2005.144
712.968	2004.103
713.096	1994.918
713.224	1988.278
713.352	1968.722
713.480	1976.454
713.608	1977.031
713.737	1991.742
713.865	1964.598
713.993	1983.000
714.121	1956.402
714.249	1956.186
714.377	1953.093
714.505	1966.639
714.633	1949.557
714.762	1945.629
714.890	1955.464
715.018	1941.031
715.146	1952.237
715.274	1925.608
715.402	1928.443
715.530	1912.577
715.658	1905.619
715.787	1907.639
715.915	1917.515
716.043	1912.567
716.171	1871.845
716.299	1881.165
716.427	1893.299
716.555	1893.907
716.683	1880.000
716.812	1870.165
716.940	1883.392
717.068	1874.722
717.196	1878.845
717.324	1868.464
717.452	1839.742
717.580	1861.763
717.708	1831.598
717.837	1846.330
717.965	1838.443
718.093	1841.165
718.221	1825.155
718.349	1821.021
718.477	1831.082
718.605	1825.103
718.733	1818.649
718.862	1813.124
718.990	1817.732
719.118	1800.639
719.246	1789.041
719.374	1795.711
719.502	1782.897
719.630	1787.629
719.758	1783.918
719.887	1778.206
720.015	1769.464
720.143	1749.546
720.271	1752.588
720.399	1753.227
720.527	1740.433
720.655	1743.598
720.783	1734.505
720.912	1729.093
721.040	1715.588
721.168	1720.196
721.296	1722.825
721.424	1706.196
721.552	1700.639
721.680	1701.381
721.808	1693.763
721.937	1708.371
722.065	1679.062
722.193	1692.639
722.321	1690.763
722.449	1683.577
722.577	1661.309
722.705	1663.340
722.833	1658.598
722.962	1666.299
723.090	1652.608
723.218	1640.134
723.346	1636.866
723.474	1647.000
723.602	1622.289
723.730	1624.093
723.858	1619.186
723.987	1626.412
724.115	1620.412
724.243	1618.784
724.371	1606.175
724.499	1624.072
724.627	1597.247
724.755	1609.299
724.883	1586.072
725.012	1594.186
725.140	1574.093
725.268	1576.866
725.396	1551.196
725.524	1577.072
725.652	1543.464
725.780	1564.258
725.908	1544.134
726.037	1542.062
726.165	1545.041
726.293	1531.897
726.421	1524.701
726.549	1534.134
726.677	1518.392
726.805	1512.763
726.933	1510.918
727.062	1507.979
727.190	1501.330
727.318	1495.258
727.446	1501.670
727.574	1486.423
727.702	1475.402
727.830	1478.371
727.958	1474.722
728.087	1490.897
728.215	1458.175
728.343	1454.340
728.471	1461.680
728.599	1456.062
728.727	1460.392
728.855	1446.515
728.983	1427.268
729.112	1433.608
729.240	1432.773
729.368	1437.392
729.496	1420.804
729.624	1432.691
729.752	1417.814
729.880	1419.722
730.008	1409.113
730.137	1403.918
730.265	1408.629
730.393	1403.619
730.521	1400.186
730.649	1396.918
730.777	1392.928
730.905	1387.381
731.033	1373.175
731.162	1387.773
731.290	1385.381
731.418	1379.660
731.546	1366.258
731.674	1366.309
731.802	1372.412
731.930	1360.629
732.058	1356.773
732.187	1362.897
732.315	1344.691
732.443	1361.515
732.571	1350.990
732.699	1345.505
732.827	1340.010
732.955	1352.742
733.083	1327.722
733.212	1336.990
733.340	1333.093
733.468	1335.897
733.596	1317.320
733.724	1323.021
733.852	1314.639
733.980	1296.784
734.108	1315.082
734.237	1306.299
734.365	1308.000
734.493	1298.258
734.621	1298.701
734.749	1307.588
734.877	1296.371
735.005	1291.711
735.133	1295.371
735.262	1290.608
735.390	1263.454
735.518	1283.691
735.646	1281.443
735.774	1271.918
735.902	1274.794
736.030	1270.546
736.158	1266.330
736.287	1266.701
736.415	1262.835
736.543	1261.041
736.671	1262.546
736.799	1247.093
736.927	1251.093
737.055	1256.237
737.183	1240.320
737.312	1239.773
737.440	1226.845
737.568	1233.784
737.696	1235.206
737.824	1234.237
737.952	1255.299
738.080	1233.969
738.208	1214.093
738.337	1221.010
738.465	1215.608
738.593	1212.155
738.721	1205.639
738.849	1199.320
738.977	1195.196
739.105	1191.907
739.233	1212.784
739.362	1192.619
739.490	1197.423
739.618	1185.021
739.746	1183.381
739.874	1168.959
740.002	1182.309
740.130	1160.392
740.258	1166.887
740.387	1166.464
740.515	1173.856
740.643	1148.454
740.771	1157.928
740.899	1154.649
741.027	1143.247
741.155	1147.773
741.283	1147.237
741.412	1154.351
741.540	1137.402
741.668	1138.660
741.796	1127.000
741.924	1123.340
742.052	1121.577
742.180	1122.959
742.308	1106.227
742.437	1100.474
742.565	1110.598
742.693	1103.216
742.821	1106.031
742.949	1097.237
743.077	1085.598
743.205	1095.897
743.333	1070.742
743.462	1074.629
743.590	1076.557
743.718	1078.649
743.846	1070.371
743.974	1071.598
744.102	1051.175
744.230	1066.041
744.358	1053.309
744.487	1052.412
744.615	1041.557
744.743	1041.722
744.871	1038.526
744.999	1035.454
745.127	1034.866
745.255	1017.557
745.383	1023.907
745.512	1013.639
745.640	1015.515
745.768	1014.804
745.896	1007.897
746.024	999.918
746.152	1005.495
746.280	1007.371
746.408	1002.732
746.537	993.835
746.665	989.361
746.793	987.763
746.921	989.247
747.049	982.196
747.177	970.165
747.305	975.134
747.433	970.216
747.562	960.392
747.690	960.495
747.818	953.722
747.946	955.103
748.074	946.753
748.202	951.536
748.330	939.660
748.458	931.124
748.587	938.124
748.715	927.732
748.843	922.093
748.971	919.845
749.099	933.763
749.227	922.320
749.355	918.887
749.483	910.000
749.612	919.443
749.740	915.247
749.868	907.588
749.996	903.093
750.124	916.515
750.252	893.588
750.380	898.938
750.508	890.567
750.637	881.041
750.765	879.598
750.893	879.433
751.021	877.969
751.149	873.124
751.277	877.464
751.405	861.515
751.533	875.216
751.662	854.340
751.790	861.340
751.918	841.763
752.046	857.474
752.174	840.103
752.302	836.433
752.430	842.289
752.558	837.000
752.687	834.443
752.815	833.649
752.943	820.124
753.071	815.763
753.199	821.443
753.327	812.237
753.455	809.711
753.583	800.299
753.712	788.742
753.840	799.784
753.968	786.433
754.096	791.990
754.224	790.959
754.352	781.278
754.480	789.021
754.608	778.309
754.737	772.990
754.865	770.670
754.993	777.062
755.121	763.763
755.249	754.897
755.377	751.237
755.505	754.237
755.633	759.526
755.762	746.165
755.890	739.773
756.018	737.000
756.146	724.227
756.274	724.010
756.402	724.309
756.530	725.680
756.658	728.340
756.787	708.515
756.915	720.052
757.043	707.309
757.171	700.804
757.299	705.495
757.427	696.454
757.555	696.041
757.683	685.680
757.812	685.753
757.940	684.557
758.068	680.722
758.196	676.237
758.324	680.000
758.452	670.278
758.580	669.866
758.708	659.845
758.837	658.351
758.965	660.794
759.093	650.680
759.221	645.155
759.349	645.588
759.477	640.567
759.605	629.691
759.733	638.155
759.862	629.598
759.990	629.330
760.118	626.948
760.246	620.866
760.374	618.485
760.502	610.423
760.630	611.124
760.758	607.041
760.887	605.258
761.015	599.392
761.143	599.495
761.271	601.794
761.399	590.938
761.527	588.567
761.655	580.649
761.783	578.990
761.912	573.000
762.040	573.052
762.168	564.711
762.296	563.536
762.424	561.412
762.552	556.412
762.680	554.907
762.808	556.010
762.937	547.948
763.065	537.845
763.193	541.701
763.321	539.907
763.449	528.856
763.577	523.072
763.705	532.639
763.833	526.412
763.962	521.680
764.090	522.062
764.218	515.598
764.346	513.794
764.474	517.216
764.602	508.289
764.730	510.412
764.858	511.722
764.987	506.835
765.115	495.948
765.243	498.835
765.371	496.464
765.499	489.711
765.627	497.216
765.755	496.701
765.883	485.948
766.012	486.124
766.140	482.155
766.268	480.412
766.396	479.753
766.524	477.320
766.652	475.268
766.780	473.567
766.908	473.113
767.037	469.887
767.165	466.557
767.293	469.392
767.421	464.969
767.549	460.216
767.677	459.433
767.805	457.928
767.933	455.289
768.062	453.505
768.190	454.619
768.318	456.887
768.446	446.340
768.574	445.526
768.702	443.639
768.830	443.165
768.958	440.309
769.087	436.392
769.215	438.948
769.343	434.701
769.471	437.093
769.599	434.041
769.727	430.959
769.855	428.979
769.983	433.732
770.112	429.701
770.240	424.144
770.368	422.216
770.496	415.443
770.624	419.402
770.752	419.753
770.880	418.691
771.008	411.289
771.137	416.113
771.265	414.186
771.393	407.072
771.521	409.784
771.649	407.412
771.777	408.918
771.905	403.897
772.033	405.371
772.162	399.340
772.290	400.186
772.418	403.124
772.546	391.732
772.674	399.691
772.802	395.412
772.930	391.577
773.058	391.258
773.187	388.340
773.315	387.113
773.443	382.361
773.571	386.433
773.699	384.247
773.827	386.351
773.955	390.340
774.083	382.907
774.212	378.990
774.340	382.402
774.468	371.093
774.596	368.113
774.724	372.031
774.852	375.660
774.980	374.031
775.108	369.464
775.237	368.000
775.365	367.598
775.493	364.237
775.621	360.165
775.749	359.361
775.877	358.691
776.005	358.742
776.133	355.876
776.262	355.443
776.390	355.732
776.518	354.897
776.646	357.124
776.774	352.392
776.902	347.443
777.030	349.155
777.158	349.289
777.287	348.351
777.415	343.660
777.543	349.268
777.671	342.732
777.799	337.742
777.927	344.887
778.055	339.258
778.183	340.588
778.312	333.227
778.440	333.701
778.568	336.660
778.696	340.175
778.824	333.423
778.952	335.278
779.080	326.474
779.208	324.433
779.337	326.536
779.465	326.866
779.593	325.505
779.721	323.804
779.849	320.371
779.977	322.691
780.105	321.990
780.233	317.258
780.362	314.670
780.490	310.268
780.618	316.753
780.746	312.701
780.874	315.464
781.002	305.072
781.130	310.990
781.258	306.474
781.387	306.278
781.515	305.866
781.643	301.557
781.771	301.485
781.899	301.588
782.027	298.742
782.155	294.773
782.283	298.052
782.412	299.598
782.540	298.557
782.668	297.361
782.796	290.536
782.924	293.866
783.052	291.402
783.180	287.876
783.308	287.505
783.437	286.165
783.565	283.794
783.693	284.134
783.821	283.845
783.949	284.381
784.077	283.969
784.205	282.474
784.333	284.485
784.462	281.216
784.590	281.577
784.718	278.835
784.846	276.711
784.974	276.433
785.102	273.649
785.230	270.237
785.358	269.309
785.487	265.557
785.615	267.186
785.743	266.619
785.871	265.206
785.999	267.938
786.127	271.608
786.255	261.866
786.383	256.082
786.512	259.103
786.640	259.722
786.768	264.701
786.896	257.216
787.024	260.278
787.152	255.680
787.280	251.990
787.408	253.670
787.537	252.629
787.665	249.546
787.793	252.227
787.921	248.845
788.049	246.928
788.177	247.897
788.305	245.361
788.433	241.021
788.562	244.134
788.690	245.216
788.818	245.742
788.946	241.784
789.074	237.433
789.202	238.093
789.330	238.990
789.458	237.979
789.587	235.278
789.715	235.660
789.843	232.948
789.971	232.866
790.099	234.990
790.227	233.351
790.355	231.021
790.483	231.546
790.612	232.010
790.740	231.557
790.868	230.216
790.996	228.907
791.124	231.351
791.252	225.206
791.380	222.938
791.508	225.753
791.637	220.701
791.765	219.691
791.893	224.660
792.021	219.557
792.149	220.485
792.277	222.165
792.405	219.557
792.533	214.134
792.662	215.299
792.790	213.526
792.918	220.062
793.046	209.753
793.174	215.402
793.302	210.289
793.430	210.804
793.558	210.526
793.687	203.773
793.815	206.186
793.943	205.804
794.071	203.206
794.199	201.505
794.327	204.990
794.455	202.093
794.583	204.711
794.712	203.753
794.840	202.711
794.968	198.031
795.096	199.701
795.224	197.216
795.352	199.660
795.480	196.000
795.608	195.856
795.737	189.423
795.865	191.299
795.993	194.031
796.121	193.124
796.249	191.588
796.377	190.485
796.505	190.144
796.633	188.567
796.762	186.691
796.890	187.381
797.018	186.567
797.146	187.629
797.274	184.485
797.402	182.495
797.530	186.680
797.658	182.959
797.787	184.711
797.915	183.546
798.043	183.103
798.171	181.423
798.299	179.454
798.427	179.948
798.555	180.928
798.683	177.299
798.812	178.175
798.940	178.784
799.068	179.680
799.196	176.804
799.324	174.258
799.452	175.691
799.580	171.804
799.708	174.969
799.837	175.144
799.965	173.629
800.093	173.866
800.221	171.010
800.349	169.763
800.477	169.289
800.605	167.711
800.733	167.639
800.862	170.639
800.990	167.784
801.118	167.887
801.246	166.536
801.374	171.546
801.502	164.887
801.630	164.814
801.758	165.629
801.887	164.742
802.015	164.155
802.143	162.309
802.271	163.175
802.399	165.258
802.527	161.711
802.655	160.979
802.783	159.897
802.912	160.804
803.040	158.577
803.168	157.969
803.296	161.247
803.424	158.320
803.552	156.711
803.680	155.742
803.808	157.773
803.937	154.113
804.065	155.845
804.193	157.052
804.321	154.289
804.449	155.289
804.577	155.134
804.705	157.814
804.833	156.247
804.962	152.722
805.090	153.309
805.218	154.763
805.346	150.000
805.474	153.990
805.602	152.454
805.730	149.381
805.858	148.433
805.987	149.237
806.115	153.134
806.243	151.093
806.371	150.412
806.499	148.155
806.627	148.660
806.755	147.052
806.883	147.856
807.012	144.979
807.140	146.649
807.268	143.227
807.396	145.289
807.524	146.155
807.652	149.216
807.780	143.557
807.908	146.639
808.037	146.299
808.165	147.876
808.293	144.216
808.421	141.021
808.549	143.412
808.677	141.845
808.805	142.082
808.933	143.711
809.062	142.969
809.190	139.876
809.318	142.330
809.446	140.515
809.574	141.454
809.702	139.753
809.830	140.299
809.958	140.804
810.087	138.866
810.215	139.887
810.343	139.402
810.471	138.948
810.599	139.454
810.727	141.629
810.855	139.711
810.983	139.093
811.112	137.454
811.240	136.639
811.368	138.619
811.496	138.515
811.624	136.660
811.752	135.392
811.880	136.557
812.008	137.804
812.137	138.505
812.265	136.804
812.393	136.959
812.521	132.258
812.649	132.742
812.777	131.629
812.905	133.454
813.033	134.567
813.162	129.845
813.290	134.763
813.418	133.567
813.546	134.124
813.674	131.825
813.802	130.196
813.930	129.732
814.058	132.825
814.187	134.701
814.315	131.598
814.443	130.072
814.571	129.876
814.699	131.381
814.827	130.082
814.955	127.216
815.083	130.289
815.212	129.907
815.340	125.691
815.468	130.165
815.596	126.680
815.724	129.278
815.852	129.392
815.980	128.629
816.108	127.443
816.237	128.330
816.365	131.052
816.493	128.340
816.621	126.639
816.749	126.897
816.877	134.608
817.005	129.835
817.133	128.412
817.262	126.990
817.390	128.103
817.518	126.948
817.646	121.887
817.774	121.206
817.902	124.412
818.030	123.732
818.158	125.320
818.287	124.567
818.415	125.577
818.543	124.701
818.671	125.814
818.799	124.814
818.927	122.062
819.055	125.124
819.183	124.701
819.312	124.155
819.440	121.670
819.568	122.856
819.696	122.938
819.824	122.031
819.952	121.784
820.080	121.918
820.208	122.155
820.337	122.546
820.465	120.299
820.593	119.732
820.721	121.371
820.849	117.670
820.977	121.268
821.105	120.887
821.233	119.402
821.362	121.175
821.490	119.701
821.618	121.196
821.746	117.443
821.874	118.237
822.002	120.010
822.130	122.113
822.258	116.784
822.387	116.732
822.515	118.000
822.643	117.103
822.771	116.443
822.899	116.979
823.027	116.979
823.155	118.268
823.283	117.577
823.412	120.701
823.540	116.155
823.668	115.918
823.796	114.619
823.924	116.814
824.052	115.299
824.180	115.206
824.308	116.155
824.437	118.443
824.565	116.649
824.693	115.423
824.821	116.124
824.949	114.907
825.077	115.588
825.205	111.814
825.333	115.577
825.462	115.278
825.590	114.515
825.718	112.680
825.846	115.938
825.974	115.072
826.102	114.433
826.230	114.711
826.358	116.732
826.487	114.969
826.615	113.423
826.743	114.134
826.871	113.742
826.999	112.546
827.127	115.227
827.255	114.165
827.383	112.577
827.512	113.784
827.640	115.216
827.768	113.588
827.896	111.598
828.024	112.794
828.152	112.330
828.280	112.196
828.408	113.340
828.537	113.041
828.665	112.392
828.793	112.990
828.921	113.402
829.049	112.546
829.177	112.010
829.305	112.113
829.433	111.598
829.562	111.412
829.690	111.062
829.818	110.866
829.946	110.825
830.074	109.196
830.202	110.845
830.330	109.722
830.458	110.804
830.587	111.299
830.715	109.010
830.843	110.320
830.971	111.588
831.099	110.216
831.227	110.608
831.355	110.113
831.483	111.845
831.612	110.918
831.740	110.227
831.868	109.742
831.996	109.464
832.124	108.938
832.252	110.495
832.380	110.351
832.508	111.103
832.637	109.464
832.765	109.742
832.893	111.526
833.021	110.113
833.149	109.402
833.277	110.381
833.405	108.794
833.533	107.959
833.662	109.052
833.790	109.969
833.918	110.052
834.046	109.660
834.174	108.856
834.302	110.144
834.430	108.072
834.558	110.515
834.687	109.660
834.815	108.948
834.943	107.505
835.071	110.031
835.199	109.186
835.327	107.969
835.455	106.845
835.583	108.196
835.712	108.825
835.840	109.773
835.968	107.845
836.096	106.876
836.224	109.928
836.352	107.186
836.480	108.454
836.608	108.041
836.737	109.948
836.865	108.299
836.993	108.041
837.121	108.959
837.249	107.320
837.377	107.423
837.505	106.351
837.633	107.330
837.762	108.206
837.890	105.794
838.018	105.608
838.146	106.443
838.274	107.619
838.402	106.835
838.530	106.371
838.658	106.649
838.787	106.567
838.915	106.598
839.043	106.588
839.171	108.031
839.299	107.887
839.427	106.515
839.555	107.052
839.683	105.969
839.812	108.660
839.940	107.351
840.068	106.567
840.196	106.454
840.324	107.289
840.452	106.619
840.580	106.825
840.708	106.505
840.837	105.979
840.965	107.175
841.093	106.196
841.221	105.546
841.349	106.670
841.477	107.753
841.605	106.093
841.733	105.928
841.862	107.144
841.990	107.289
842.118	106.041
842.246	105.495
842.374	104.866
842.502	106.010
842.630	107.041
842.758	105.258
842.887	106.577
843.015	106.485
843.143	106.598
843.271	105.845
843.399	108.041
843.527	105.979
843.655	104.340
843.783	103.887
843.912	105.526
844.040	103.515
844.168	105.381
844.296	105.959
844.424	105.206
844.552	106.969
844.680	105.351
844.808	104.938
844.937	105.680
845.065	105.557
845.193	105.835
845.321	105.381
845.449	105.454
845.577	104.278
845.705	104.619
845.833	105.000
845.962	105.031
846.090	107.103
846.218	104.031
846.346	105.041
846.474	106.876
846.602	105.804
846.730	105.052
846.858	104.010
846.987	103.371
847.115	104.598
847.243	104.464
847.371	104.041
847.499	103.711
847.627	106.144
847.755	106.680
847.883	105.928
848.012	104.649
848.140	103.485
848.268	104.361
848.396	103.742
848.524	106.216
848.652	104.515
848.780	103.515
848.908	105.454
849.037	103.629
849.165	103.227
849.293	104.392
849.421	104.948
849.549	103.711
849.677	104.258
849.805	105.072
849.933	104.402
850.062	104.361
850.190	102.825
850.318	104.608
850.446	103.629
850.574	104.113
850.702	103.680
850.830	104.010
850.958	103.629
851.087	105.196
851.215	104.928
851.343	102.505
851.471	104.144
851.599	105.124
851.727	103.701
851.855	102.258
851.983	104.031
852.112	104.907
852.240	105.381
852.368	102.732
852.496	104.041
852.624	104.299
852.752	104.361
852.880	103.454
853.008	103.711
853.137	103.567
853.265	104.144
853.393	103.113
853.521	103.103
853.649	103.722
853.777	104.289
853.905	103.289
854.033	103.598
854.162	103.608
854.290	102.866
854.418	102.495
854.546	103.495
854.674	103.134
854.802	102.856
854.930	102.433
855.058	101.794
855.187	103.103
855.315	103.155
855.443	103.918
855.571	103.062
855.699	103.485
855.827	101.753
855.955	103.082
856.083	103.722
856.212	104.876
856.340	103.505
856.468	104.639
856.596	104.103
856.724	102.402
856.852	102.959
856.980	101.186
857.108	103.227
857.237	102.835
857.365	104.052
857.493	104.340
857.621	102.928
857.749	103.072
857.877	102.237
858.005	102.804
858.133	101.577
858.262	103.423
858.390	104.773
858.518	103.794
858.646	105.423
858.774	103.021
858.902	103.206
859.030	103.320
859.158	104.247
859.287	102.742
859.415	101.278
859.543	101.959
859.671	103.093
859.799	102.144
859.927	102.907
860.055	103.134
860.183	102.515
860.312	103.402
860.440	102.608
860.568	102.845
860.696	102.144
860.824	104.660
860.952	103.763
861.080	103.093
861.208	102.577
861.337	102.124
861.465	103.443
861.593	104.196
861.721	104.278
861.849	102.804
861.977	103.196
862.105	103.423
862.233	105.052
862.362	102.814
862.490	100.948
862.618	101.670
862.746	102.320
862.874	104.526
863.002	103.165
863.130	103.402
863.258	103.979
863.387	103.082
863.515	101.979
863.643	101.371
863.771	103.825
863.899	104.289
864.027	103.835
864.155	102.918
864.283	102.412
864.412	103.041
864.540	104.206
864.668	103.000
864.796	104.021
864.924	101.474
865.052	102.691
865.180	104.959
865.308	104.021
865.437	102.505
865.565	103.093
865.693	101.897
865.821	103.216
865.949	103.598
866.077	103.763
866.205	103.268
866.333	103.505
866.462	101.474
866.590	103.124
866.718	103.454
866.846	103.804
866.974	104.649
867.102	101.639
867.230	104.175
867.358	103.835
867.487	103.515
867.615	104.155
867.743	103.876
867.871	103.175
867.999	103.505
868.127	103.144
868.255	103.320
868.383	102.711
868.512	103.443
868.640	103.093
868.768	103.247
868.896	103.072
869.024	101.979
869.152	102.835
869.280	101.526
869.408	103.010
869.537	103.433
869.665	103.485
869.793	103.268
869.921	103.340
870.049	102.763
870.177	103.577
870.305	102.629
870.433	102.753
870.562	102.722
870.690	100.711
870.818	102.918
870.946	102.536
871.074	103.928
871.202	103.711
871.330	102.103
871.458	105.299
871.587	103.670
871.715	103.278
871.843	102.928
871.971	103.680
872.099	102.320
872.227	103.680
872.355	102.082
872.483	102.773
872.612	102.289
872.740	101.660
872.868	103.155
872.996	101.814
873.124	102.639
873.252	103.505
873.380	104.113
873.508	102.371
873.637	103.598
873.765	101.577
873.893	102.825
874.021	103.629
874.149	102.515
874.277	104.113
874.405	103.845
874.533	101.773
874.662	103.206
874.790	104.196
874.918	102.454
875.046	101.258
875.174	100.990
875.302	102.928
875.430	103.330
875.558	103.021
875.687	102.928
875.815	104.505
875.943	103.010
876.071	103.814
876.199	103.227
876.327	102.742
876.455	104.227
876.583	101.990
876.712	103.557
876.840	103.557
876.968	102.763
877.096	102.103
877.224	102.103
877.352	103.546
877.480	103.856
877.608	102.113
877.737	103.485
877.865	104.433
877.993	102.454
878.121	102.485
878.249	103.216
878.377	102.732
878.505	102.825
878.633	103.588
878.762	104.845
878.890	103.062
879.018	103.711
879.146	103.649
879.274	103.959
879.402	104.474
879.530	101.691
879.658	102.000
879.787	102.567
879.915	103.113
880.043	103.278
880.171	103.021
880.299	102.907
880.427	102.660
880.555	101.990
880.683	104.103
880.812	102.216
880.940	102.237
881.068	103.072
881.196	102.309
881.324	103.907
881.452	102.845
881.580	102.990
881.708	102.371
881.837	103.856
881.965	102.309
882.093	102.577
882.221	102.227
882.349	102.093
882.477	104.680
882.605	104.093
882.733	102.680
882.862	102.505
882.990	104.825
883.118	104.454
883.246	103.639
883.374	103.732
883.502	102.876
883.630	103.237
883.758	103.629
883.887	103.320
884.015	104.660
884.143	104.629
884.271	103.464
884.399	104.041
884.527	102.845
884.655	103.763
884.783	105.320
884.912	103.196
885.040	104.216
885.168	102.546
885.296	103.722
885.424	102.990
885.552	102.979
885.680	102.082
885.808	102.485
885.937	104.392
886.065	102.186
886.193	100.928
886.321	103.763
886.449	102.804
886.577	104.082
886.705	101.928
886.833	101.691
886.962	103.505
887.090	101.082
887.218	102.392
887.346	101.299
887.474	102.598
887.602	101.742
887.730	101.835
887.858	102.247
887.987	102.711
888.115	103.825
888.243	102.546
888.371	102.825
888.499	104.959
888.627	102.175
888.755	102.144
888.883	104.464
889.012	103.216
889.140	104.464
889.268	103.041
889.396	101.598
889.524	102.804
889.652	102.959
889.780	102.371
889.908	102.887
890.037	103.567
890.165	102.567
890.293	102.155
890.421	103.928
890.549	103.670
890.677	102.567
890.805	102.423
890.933	103.031
891.062	102.794
891.190	103.897
891.318	104.010
891.446	103.598
891.574	102.021
891.702	102.165
891.830	102.897
891.958	104.237
892.087	102.897
892.215	103.680
892.343	105.031
892.471	102.474
892.599	103.639
892.727	103.206
892.855	102.515
892.983	102.990
893.112	102.340
893.240	102.907
893.368	102.979
893.496	101.969
893.624	101.495
893.752	103.495
893.880	101.773
894.008	103.588
894.137	102.938
894.265	102.670
894.393	101.041
894.521	102.907
894.649	104.299
894.777	103.309
894.905	103.588
895.033	103.742
895.162	103.814
895.290	104.052
895.418	103.680
895.546	104.722
895.674	104.186
895.802	101.969
895.930	103.598
896.058	103.196
896.187	102.062
896.315	104.515
896.443	102.113
896.571	101.773
896.699	102.577
896.827	102.186
896.955	104.990
897.083	103.918
897.212	104.268
897.340	102.887
897.468	102.557
897.596	102.299
897.724	102.062
897.852	102.433
897.980	101.268
898.108	101.330
898.237	102.577
898.365	103.742
898.493	102.928
898.621	102.423
898.749	101.680
898.877	102.515
899.005	103.340
899.133	102.216
899.262	102.237
899.390	102.701
899.518	101.938
899.646	102.577
899.774	102.485
899.902	101.990
900.030	103.010
900.158	104.093
900.287	102.887
900.415	102.402
900.543	101.959
900.671	102.268
900.799	99.959
900.927	102.691
901.055	103.052
901.183	102.330
901.312	103.546
901.440	101.381
901.568	101.907
901.696	101.794
901.824	102.619
901.952	102.351
902.080	103.330
902.208	101.825
902.337	101.062
902.465	102.031
902.593	101.660
902.721	102.113
902.849	102.938
902.977	103.175
903.105	101.381
903.233	102.804
903.362	102.567
903.490	102.443
903.618	100.948
903.746	101.804
903.874	103.010
904.002	104.526
904.130	104.443
904.258	103.608
904.387	104.474
904.515	103.464
904.643	102.918
904.771	102.361
904.899	104.000
905.027	101.928
905.155	102.423
905.283	102.536
905.412	103.701
905.540	102.515
905.668	103.289
905.796	103.546
905.924	101.887
906.052	100.918
906.180	102.959
906.308	101.990
906.437	101.165
906.565	101.247
906.693	102.722
906.821	104.082
906.949	103.608
907.077	101.990
907.205	101.309
907.333	101.206
907.462	103.763
907.590	101.990
907.718	101.804
907.846	101.515
907.974	100.979
908.102	102.928
908.230	101.289
908.358	101.052
908.487	102.402
908.615	103.216
908.743	102.649
908.871	102.814
908.999	100.598
909.127	101.289
909.255	102.639
909.383	103.546
909.512	102.856
909.640	103.969
909.768	102.567
909.896	103.722
910.024	103.371
910.152	104.021
910.280	103.907
910.408	101.876
910.537	102.371
910.665	101.299
910.793	100.928
910.921	101.763
911.049	102.515
911.177	103.557
911.305	102.784
911.433	103.649
911.562	102.794
911.690	103.701
911.818	102.969
911.946	102.722
912.074	102.835
912.202	101.309
912.330	102.454
912.458	102.423
912.587	102.856
912.715	102.381
912.843	103.423
912.971	105.619
913.099	102.856
913.227	103.093
913.355	103.649
913.483	101.216
913.612	102.619
913.740	103.474
913.868	101.536
