90_120_90_Pol_at_750.00nm_cut_at_1179.00Y_01.dat
03.07.2023
11:31:10
cut middle at Y: 1179.00
top cursor: 1231 down cursor: 1127 mean of: 104 lines , 2560 datapoints
wavelength(nm)	intensity[arb. units]
585.996	11310.394
586.124	11103.538
586.252	11073.587
586.380	11113.510
586.508	11142.837
586.637	11243.490
586.765	11162.096
586.893	11190.635
587.021	11250.760
587.149	11232.394
587.277	11249.106
587.405	11238.471
587.533	11322.327
587.662	11328.885
587.790	11321.683
587.918	11314.519
588.046	11296.269
588.174	11335.952
588.302	11286.096
588.430	11300.433
588.558	11339.010
588.687	11319.885
588.815	11308.135
588.943	11325.462
589.071	11281.577
589.199	11310.548
589.327	11290.135
589.455	11363.365
589.583	11322.529
589.712	11272.740
589.840	11272.990
589.968	11261.567
590.096	11291.462
590.224	11252.115
590.352	11343.904
590.480	11286.635
590.608	11278.519
590.737	11276.500
590.865	11338.135
590.993	11213.462
591.121	11236.933
591.249	11230.135
591.377	11220.913
591.505	11310.846
591.633	11199.529
591.762	11224.365
591.890	11223.519
592.018	11310.981
592.146	11214.135
592.274	11217.933
592.402	11186.394
592.530	11383.798
592.658	11289.596
592.787	11241.125
592.915	11256.154
593.043	11210.538
593.171	11267.942
593.299	11244.971
593.427	11222.894
593.555	11267.596
593.683	11227.212
593.812	11258.750
593.940	11295.490
594.068	11277.442
594.196	11250.923
594.324	11293.356
594.452	11474.135
594.580	11358.077
594.708	11375.048
594.837	11364.981
594.965	11464.029
595.093	11381.423
595.221	11476.596
595.349	11442.990
595.477	11443.692
595.605	11486.135
595.733	11506.019
595.862	11522.596
595.990	11517.115
596.118	11592.721
596.246	11609.519
596.374	11549.452
596.502	11598.365
596.630	11597.885
596.758	11585.990
596.887	11577.029
597.015	11578.548
597.143	11595.750
597.271	11646.183
597.399	11664.538
597.527	11608.721
597.655	11630.327
597.783	11630.144
597.912	11639.606
598.040	11653.067
598.168	11600.067
598.296	11574.404
598.424	11733.846
598.552	11575.837
598.680	11582.462
598.808	11619.221
598.937	11534.942
599.065	11587.615
599.193	11644.048
599.321	11575.654
599.449	11530.346
599.577	11541.779
599.705	11545.731
599.833	11503.038
599.962	11471.115
600.090	11490.135
600.218	11494.712
600.346	11476.385
600.474	11465.712
600.602	11426.385
600.730	11393.365
600.858	11436.231
600.987	11480.413
601.115	11438.029
601.243	11491.048
601.371	11503.231
601.499	11501.346
601.627	11502.135
601.755	11440.462
601.883	11533.029
602.012	11390.827
602.140	11521.827
602.268	11493.788
602.396	11622.788
602.524	11517.462
602.652	11572.077
602.780	11550.337
602.908	11595.115
603.037	11652.942
603.165	11587.510
603.293	11650.529
603.421	11646.423
603.549	11684.933
603.677	11737.106
603.805	11694.721
603.933	11748.904
604.062	11815.942
604.190	11858.808
604.318	11901.144
604.446	11818.048
604.574	11961.500
604.702	11986.827
604.830	11914.029
604.958	11987.212
605.087	12010.692
605.215	12078.000
605.343	12155.173
605.471	12118.279
605.599	12113.769
605.727	12236.183
605.855	12180.875
605.983	12245.029
606.112	12262.654
606.240	12262.894
606.368	12225.817
606.496	12251.029
606.624	12350.346
606.752	12260.433
606.880	12351.596
607.008	12302.779
607.137	12285.779
607.265	12404.596
607.393	12391.817
607.521	12427.413
607.649	12341.048
607.777	12339.029
607.905	12374.077
608.033	12326.231
608.162	12351.269
608.290	12323.875
608.418	12419.173
608.546	12367.673
608.674	12384.817
608.802	12344.519
608.930	12309.587
609.058	12284.519
609.187	12305.913
609.315	12277.625
609.443	12238.500
609.571	12352.490
609.699	12216.750
609.827	12303.115
609.955	12221.712
610.083	12185.500
610.212	12174.702
610.340	12119.510
610.468	12148.942
610.596	12152.250
610.724	12107.942
610.852	12171.635
610.980	12132.413
611.108	12080.067
611.237	12092.154
611.365	12108.490
611.493	12063.019
611.621	12111.385
611.749	12077.288
611.877	12133.144
612.005	12051.692
612.133	12104.923
612.262	12093.856
612.390	12154.721
612.518	12160.933
612.646	12080.567
612.774	12177.212
612.902	12162.173
613.030	12135.471
613.158	12130.683
613.287	12231.885
613.415	12133.144
613.543	12186.942
613.671	12146.029
613.799	12191.173
613.927	12229.298
614.055	12259.548
614.183	12273.702
614.312	12233.981
614.440	12371.077
614.568	12343.067
614.696	12356.731
614.824	12305.904
614.952	12367.356
615.080	12384.779
615.208	12415.769
615.337	12516.923
615.465	12436.279
615.593	12499.558
615.721	12463.644
615.849	12569.731
615.977	12515.404
616.105	12577.942
616.233	12556.702
616.362	12626.154
616.490	12631.260
616.618	12623.904
616.746	12756.125
616.874	12682.779
617.002	12718.894
617.130	12743.827
617.258	12685.269
617.387	12741.144
617.515	12762.760
617.643	12734.817
617.771	12807.702
617.899	12757.115
618.027	12810.010
618.155	12826.202
618.283	12801.327
618.412	12852.962
618.540	12913.327
618.668	12856.058
618.796	12851.029
618.924	12814.106
619.052	12867.019
619.180	12834.875
619.308	12827.615
619.437	12812.692
619.565	12832.365
619.693	12802.519
619.821	12857.837
619.949	12820.279
620.077	12820.423
620.205	12829.202
620.333	12875.452
620.462	12792.673
620.590	12819.779
620.718	12852.000
620.846	12845.808
620.974	12842.221
621.102	12901.837
621.230	12831.192
621.358	12970.837
621.487	12803.894
621.615	12869.760
621.743	12789.250
621.871	12859.721
621.999	12778.904
622.127	12805.750
622.255	12782.087
622.383	12746.212
622.512	12747.202
622.640	12753.240
622.768	12767.462
622.896	12830.740
623.024	12790.721
623.152	12728.413
623.280	12841.019
623.408	12720.308
623.537	12776.942
623.665	12695.538
623.793	12785.163
623.921	12723.817
624.049	12721.769
624.177	12723.260
624.305	12752.731
624.433	12716.750
624.562	12718.673
624.690	12846.740
624.818	12685.856
624.946	12703.904
625.074	12692.202
625.202	12681.375
625.330	12667.702
625.458	12798.846
625.587	12678.365
625.715	12722.654
625.843	12710.788
625.971	12718.615
626.099	12697.606
626.227	12730.712
626.355	12646.163
626.483	12723.721
626.612	12673.587
626.740	12722.615
626.868	12719.731
626.996	12755.144
627.124	12703.010
627.252	12680.923
627.380	12678.288
627.508	12683.827
627.637	12723.856
627.765	12715.163
627.893	12752.971
628.021	12824.596
628.149	12713.760
628.277	12793.288
628.405	12743.413
628.533	12779.106
628.662	12771.221
628.790	12886.462
628.918	12768.260
629.046	12941.385
629.174	12784.442
629.302	12821.048
629.430	12759.048
629.558	12842.279
629.687	12785.837
629.815	12865.529
629.943	12978.798
630.071	12906.394
630.199	12887.827
630.327	12931.356
630.455	12947.990
630.583	12931.202
630.712	12918.327
630.840	12949.173
630.968	12936.433
631.096	12930.154
631.224	12958.365
631.352	13128.115
631.480	13027.663
631.608	13216.548
631.737	12980.423
631.865	13145.327
631.993	13083.673
632.121	13229.769
632.249	13101.750
632.377	13113.615
632.505	13067.433
632.633	13114.231
632.762	13038.981
632.890	13101.856
633.018	13091.385
633.146	13065.981
633.274	13021.038
633.402	13105.587
633.530	13044.404
633.658	13035.769
633.787	13057.096
633.915	13051.558
634.043	13056.096
634.171	13061.212
634.299	13057.452
634.427	13028.010
634.555	13255.596
634.683	13031.067
634.812	13034.337
634.940	12965.452
635.068	13017.442
635.196	12947.048
635.324	13002.788
635.452	12983.702
635.580	13022.779
635.708	12914.933
635.837	12914.115
635.965	12883.221
636.093	12833.500
636.221	12823.433
636.349	12805.250
636.477	12745.192
636.605	12829.500
636.733	12732.096
636.862	12722.481
636.990	12744.279
637.118	12699.971
637.246	12649.096
637.374	12796.106
637.502	12607.183
637.630	12579.192
637.758	12574.769
637.887	12514.125
638.015	12629.615
638.143	12548.683
638.271	12462.952
638.399	12512.231
638.527	12415.635
638.655	12419.538
638.783	12428.740
638.912	12443.721
639.040	12403.798
639.168	12337.952
639.296	12329.962
639.424	12396.952
639.552	12327.462
639.680	12359.288
639.808	12339.337
639.937	12263.481
640.065	12245.981
640.193	12264.606
640.321	12385.817
640.449	12309.846
640.577	12220.519
640.705	12226.240
640.833	12236.029
640.962	12307.394
641.090	12181.250
641.218	12193.029
641.346	12294.769
641.474	12211.183
641.602	12188.240
641.730	12190.125
641.858	12205.183
641.987	12174.327
642.115	12347.798
642.243	12222.231
642.371	12352.769
642.499	12205.038
642.627	12244.433
642.755	12196.442
642.883	12190.529
643.012	12200.423
643.140	12243.971
643.268	12246.250
643.396	12173.990
643.524	12231.279
643.652	12287.442
643.780	12178.048
643.908	12130.788
644.037	12293.981
644.165	12268.577
644.293	12395.029
644.421	12185.346
644.549	12254.413
644.677	12315.635
644.805	12195.750
644.933	12191.231
645.062	12212.856
645.190	12384.327
645.318	12245.346
645.446	12160.423
645.574	12181.106
645.702	12229.087
645.830	12241.433
645.958	12168.308
646.087	12141.269
646.215	12130.856
646.343	12181.356
646.471	12352.125
646.599	12146.981
646.727	12145.971
646.855	12154.337
646.983	12120.856
647.112	12217.731
647.240	12144.346
647.368	12206.019
647.496	12139.106
647.624	12121.327
647.752	12064.346
647.880	12075.721
648.008	12100.010
648.137	12095.240
648.265	12051.260
648.393	12109.827
648.521	12036.663
648.649	12183.760
648.777	12074.962
648.905	12031.317
649.033	12093.904
649.162	11965.615
649.290	11897.413
649.418	11907.096
649.546	12093.856
649.674	11907.827
649.802	11872.000
649.930	11794.558
650.058	11790.365
650.187	11876.077
650.315	11774.760
650.443	11803.769
650.571	11758.596
650.699	11714.990
650.827	11682.644
650.955	11663.452
651.083	11738.154
651.212	11624.337
651.340	11632.413
651.468	11581.365
651.596	11620.856
651.724	11612.481
651.852	11552.933
651.980	11566.385
652.108	11537.125
652.237	11529.115
652.365	11431.663
652.493	11452.808
652.621	11448.683
652.749	11445.942
652.877	11407.048
653.005	11441.894
653.133	11359.606
653.262	11346.231
653.390	11328.481
653.518	11454.731
653.646	11300.087
653.774	11273.990
653.902	11369.837
654.030	11261.183
654.158	11229.558
654.287	11247.298
654.415	11208.010
654.543	11220.567
654.671	11173.087
654.799	11158.769
654.927	11123.490
655.055	11101.471
655.183	11112.635
655.312	11110.885
655.440	11067.135
655.568	11063.404
655.696	11117.865
655.824	11034.606
655.952	10987.865
656.080	11007.394
656.208	10974.615
656.337	10988.923
656.465	11146.346
656.593	10934.356
656.721	10981.625
656.849	11013.462
656.977	10825.221
657.105	10859.865
657.233	10902.288
657.362	10936.000
657.490	10877.173
657.618	10849.125
657.746	10844.115
657.874	10742.144
658.002	10711.712
658.130	10703.096
658.258	10680.990
658.387	10643.885
658.515	10623.183
658.643	10596.413
658.771	10630.702
658.899	10571.904
659.027	10555.837
659.155	10561.231
659.283	10535.423
659.412	10532.067
659.540	10503.010
659.668	10518.125
659.796	10583.221
659.924	10545.596
660.052	10619.865
660.180	10513.952
660.308	10548.615
660.437	10538.202
660.565	10483.462
660.693	10388.000
660.821	10577.702
660.949	10370.798
661.077	10399.163
661.205	10526.154
661.333	10360.077
661.462	10334.192
661.590	10435.394
661.718	10344.337
661.846	10320.990
661.974	10288.356
662.102	10279.558
662.230	10294.163
662.358	10163.269
662.487	10241.317
662.615	10224.490
662.743	10258.115
662.871	10191.048
662.999	10134.788
663.127	10105.163
663.255	10103.394
663.383	10241.875
663.512	10077.115
663.640	10127.490
663.768	10147.875
663.896	10069.279
664.024	10062.298
664.152	10034.654
664.280	10085.644
664.408	10017.096
664.537	9982.317
664.665	10025.462
664.793	10014.971
664.921	9958.087
665.049	10019.115
665.177	9923.154
665.305	9972.490
665.433	9938.721
665.562	10109.433
665.690	9963.702
665.818	10064.288
665.946	9890.558
666.074	9877.058
666.202	9850.279
666.330	9838.875
666.458	10265.462
666.587	9811.173
666.715	9842.221
666.843	9809.471
666.971	9825.183
667.099	9844.721
667.227	9888.692
667.355	9871.990
667.483	9776.683
667.612	9824.558
667.740	9802.654
667.868	9742.019
667.996	9750.442
668.124	9778.163
668.252	9848.731
668.380	9724.500
668.508	9759.596
668.637	9690.260
668.765	9737.567
668.893	9678.952
669.021	9638.798
669.149	9715.904
669.277	9587.183
669.405	9738.981
669.533	9691.019
669.662	9605.106
669.790	9587.942
669.918	9614.510
670.046	9729.875
670.174	9528.135
670.302	9505.529
670.430	9495.010
670.558	9536.538
670.687	9680.538
670.815	9476.327
670.943	9515.163
671.071	9400.567
671.199	9396.952
671.327	9414.596
671.455	9421.529
671.583	9391.019
671.712	9326.038
671.840	9403.596
671.968	9501.317
672.096	9463.615
672.224	9281.990
672.352	9245.192
672.480	9218.673
672.608	9283.885
672.737	9213.452
672.865	9152.990
672.993	9151.731
673.121	9144.962
673.249	9120.106
673.377	9080.365
673.505	9093.173
673.633	9109.288
673.762	8998.788
673.890	9045.990
674.018	9040.000
674.146	8988.846
674.274	8985.010
674.402	9002.087
674.530	8940.077
674.658	8888.510
674.787	8881.615
674.915	9027.144
675.043	8881.846
675.171	8865.548
675.299	8776.260
675.427	8766.894
675.555	8766.327
675.683	8759.913
675.812	8733.740
675.940	8707.731
676.068	8649.740
676.196	8682.683
676.324	8621.923
676.452	8585.712
676.580	8577.990
676.708	8551.394
676.837	8557.519
676.965	8608.981
677.093	8660.481
677.221	8493.192
677.349	8428.413
677.477	8499.769
677.605	8398.529
677.733	8409.019
677.862	8389.125
677.990	8349.519
678.118	8423.356
678.246	8331.596
678.374	8384.413
678.502	8321.019
678.630	8243.298
678.758	8279.529
678.887	8388.615
679.015	8167.615
679.143	8140.519
679.271	8156.452
679.399	8123.827
679.527	8122.288
679.655	8163.010
679.783	8052.856
679.912	8058.356
680.040	8221.885
680.168	8012.058
680.296	8040.538
680.424	7999.952
680.552	7952.106
680.680	7966.192
680.808	7932.019
680.937	7875.481
681.065	7943.923
681.193	7908.567
681.321	7833.635
681.449	7897.663
681.577	7839.250
681.705	7819.385
681.833	7876.404
681.962	7826.654
682.090	7782.913
682.218	7790.452
682.346	7774.202
682.474	7728.933
682.602	7729.433
682.730	7765.173
682.858	7667.779
682.987	7675.913
683.115	7704.337
683.243	7657.394
683.371	7664.567
683.499	7634.952
683.627	7665.192
683.755	7610.760
683.883	7606.317
684.012	7636.154
684.140	7568.327
684.268	7588.606
684.396	7643.029
684.524	7515.269
684.652	7579.365
684.780	7556.644
684.908	7530.337
685.037	7557.423
685.165	7520.337
685.293	7587.817
685.421	7551.577
685.549	7525.808
685.677	7443.173
685.805	7519.500
685.933	7436.058
686.062	7479.490
686.190	7421.779
686.318	7402.019
686.446	7379.298
686.574	7367.115
686.702	7448.125
686.830	7333.904
686.958	7415.433
687.087	7334.231
687.215	7343.183
687.343	7358.356
687.471	7468.731
687.599	7236.221
687.727	7259.173
687.855	7265.240
687.983	7215.471
688.112	7268.173
688.240	7221.942
688.368	7216.837
688.496	7186.144
688.624	7155.913
688.752	7304.048
688.880	7154.769
689.008	7131.827
689.137	7126.894
689.265	7073.596
689.393	7094.423
689.521	7055.702
689.649	7196.346
689.777	7061.135
689.905	7144.750
690.033	7007.577
690.162	7018.375
690.290	7045.942
690.418	6980.048
690.546	7004.154
690.674	6969.038
690.802	6979.490
690.930	6951.596
691.058	6924.558
691.187	6896.760
691.315	6850.087
691.443	6866.750
691.571	6881.923
691.699	6821.404
691.827	6801.106
691.955	6804.615
692.083	6769.894
692.212	6791.212
692.340	6774.663
692.468	6801.808
692.596	6750.962
692.724	6695.971
692.852	6732.221
692.980	6746.904
693.108	6772.587
693.237	6658.154
693.365	6606.269
693.493	6618.173
693.621	6621.471
693.749	6580.077
693.877	6642.942
694.005	6537.096
694.133	6535.952
694.262	6574.596
694.390	6487.308
694.518	6505.288
694.646	6499.981
694.774	6376.731
694.902	6424.471
695.030	6430.077
695.158	6411.442
695.287	6373.808
695.415	6379.173
695.543	6355.240
695.671	6313.981
695.799	6410.490
695.927	6303.404
696.055	6324.163
696.183	6251.029
696.312	6413.923
696.440	6259.058
696.568	6237.106
696.696	6156.500
696.824	6132.673
696.952	6112.471
697.080	6119.010
697.208	6059.837
697.337	6074.317
697.465	6074.952
697.593	6013.135
697.721	6145.500
697.849	6034.125
697.977	6052.356
698.105	6062.663
698.233	5998.529
698.362	5931.010
698.490	6073.375
698.618	5887.971
698.746	5842.538
698.874	5941.529
699.002	5886.798
699.130	5884.038
699.258	5827.365
699.387	5767.865
699.515	5835.337
699.643	5842.010
699.771	5893.712
699.899	5761.913
700.027	5711.817
700.155	5775.067
700.283	5671.394
700.412	5687.250
700.540	5685.817
700.668	5749.654
700.796	5629.462
700.924	5683.702
701.052	5680.990
701.180	5628.433
701.308	5551.865
701.437	5511.087
701.565	5537.962
701.693	5571.413
701.821	5711.087
701.949	5460.769
702.077	5485.567
702.205	5531.577
702.333	5425.375
702.462	5422.702
702.590	5467.298
702.718	5375.712
702.846	5539.904
702.974	5321.663
703.102	5326.087
703.230	5352.058
703.358	5282.913
703.487	5298.673
703.615	5253.635
703.743	5216.721
703.871	5214.798
703.999	5202.596
704.127	5182.654
704.255	5169.231
704.383	5207.106
704.512	5219.827
704.640	5168.779
704.768	5221.894
704.896	5103.500
705.024	5020.673
705.152	5097.673
705.280	5103.038
705.408	4999.087
705.537	5004.587
705.665	4999.913
705.793	4978.038
705.921	4976.587
706.049	4929.442
706.177	4969.933
706.305	4901.269
706.433	4926.308
706.562	4885.952
706.690	4906.490
706.818	4873.433
706.946	4856.288
707.074	4803.856
707.202	4764.740
707.330	4782.115
707.458	4753.279
707.587	4699.538
707.715	4754.788
707.843	4754.808
707.971	4735.904
708.099	4648.740
708.227	4663.250
708.355	4665.885
708.483	4633.202
708.612	4669.750
708.740	4601.760
708.868	4561.096
708.996	4644.663
709.124	4615.519
709.252	4588.500
709.380	4576.548
709.508	4536.875
709.637	4558.279
709.765	4514.356
709.893	4548.385
710.021	4469.385
710.149	4577.077
710.277	4435.817
710.405	4435.942
710.533	4433.827
710.662	4420.702
710.790	4513.154
710.918	4367.712
711.046	4424.500
711.174	4370.173
711.302	4387.087
711.430	4377.519
711.558	4375.625
711.687	4342.644
711.815	4303.817
711.943	4268.981
712.071	4283.471
712.199	4310.894
712.327	4355.433
712.455	4246.010
712.583	4399.481
712.712	4268.471
712.840	4287.923
712.968	4208.452
713.096	4185.538
713.224	4182.163
713.352	4169.106
713.480	4110.212
713.608	4119.990
713.737	4100.721
713.865	4165.875
713.993	4124.212
714.121	4117.885
714.249	4062.317
714.377	4078.356
714.505	4056.404
714.633	4052.510
714.762	4036.087
714.890	4023.173
715.018	4014.933
715.146	4051.981
715.274	3988.865
715.402	3977.856
715.530	3977.615
715.658	4017.231
715.787	3962.885
715.915	4038.500
716.043	3906.942
716.171	4043.760
716.299	3877.202
716.427	3949.721
716.555	3866.125
716.683	3868.510
716.812	3846.721
716.940	3847.192
717.068	3815.087
717.196	3968.644
717.324	3830.462
717.452	3805.971
717.580	3857.644
717.708	3764.587
717.837	3788.760
717.965	3820.067
718.093	3769.663
718.221	3787.587
718.349	3808.250
718.477	3708.981
718.605	3799.135
718.733	3726.894
718.862	3772.577
718.990	3676.087
719.118	3735.913
719.246	3657.106
719.374	3645.865
719.502	3695.481
719.630	3763.538
719.758	3621.625
719.887	3599.317
720.015	3626.202
720.143	3640.740
720.271	3545.990
720.399	3603.798
720.527	3558.788
720.655	3614.471
720.783	3536.712
720.912	3529.827
721.040	3517.298
721.168	3522.808
721.296	3475.538
721.424	3466.663
721.552	3444.808
721.680	3494.827
721.808	3468.038
721.937	3436.529
722.065	3492.635
722.193	3438.981
722.321	3418.154
722.449	3407.269
722.577	3358.865
722.705	3374.740
722.833	3363.827
722.962	3373.404
723.090	3322.308
723.218	3311.894
723.346	3362.625
723.474	3287.663
723.602	3258.096
723.730	3258.827
723.858	3234.654
723.987	3259.163
724.115	3238.721
724.243	3255.308
724.371	3201.260
724.499	3190.606
724.627	3198.058
724.755	3180.990
724.883	3259.298
725.012	3325.615
725.140	3179.740
725.268	3101.433
725.396	3172.779
725.524	3220.010
725.652	3097.510
725.780	3190.019
725.908	3080.779
726.037	3078.625
726.165	3076.663
726.293	3043.913
726.421	3047.769
726.549	3068.423
726.677	3019.327
726.805	2997.087
726.933	3021.183
727.062	2982.212
727.190	2964.635
727.318	2953.279
727.446	2947.125
727.574	2907.356
727.702	2905.279
727.830	2967.308
727.958	2923.615
728.087	2980.615
728.215	3004.308
728.343	2889.260
728.471	2901.135
728.599	3008.000
728.727	2845.250
728.855	2854.192
728.983	2820.683
729.112	2838.962
729.240	2836.010
729.368	2789.423
729.496	2853.125
729.624	2810.962
729.752	2766.481
729.880	2763.240
730.008	2748.721
730.137	2755.471
730.265	2738.135
730.393	2904.221
730.521	2870.462
730.649	2706.163
730.777	2669.913
730.905	2700.894
731.033	2655.096
731.162	2776.587
731.290	2740.904
731.418	2663.875
731.546	2641.058
731.674	2654.933
731.802	2621.615
731.930	2694.625
732.058	2733.769
732.187	2623.519
732.315	2658.038
732.443	2722.567
732.571	2647.317
732.699	2615.115
732.827	2595.308
732.955	2556.327
733.083	2543.202
733.212	2587.163
733.340	2539.327
733.468	2544.846
733.596	2551.221
733.724	2517.875
733.852	2532.404
733.980	2530.827
734.108	2676.712
734.237	2539.500
734.365	2509.077
734.493	2493.125
734.621	2482.596
734.749	2486.365
734.877	2503.788
735.005	2500.538
735.133	2467.942
735.262	2551.577
735.390	2470.308
735.518	2462.779
735.646	2512.298
735.774	2502.183
735.902	2507.913
736.030	2424.981
736.158	2453.538
736.287	2478.673
736.415	2449.067
736.543	2430.087
736.671	2414.577
736.799	2430.433
736.927	2423.221
737.055	2496.000
737.183	2407.798
737.312	2398.990
737.440	2413.298
737.568	2450.654
737.696	2445.625
737.824	2408.846
737.952	2629.327
738.080	2387.788
738.208	2406.721
738.337	2378.875
738.465	2378.356
738.593	2374.038
738.721	2366.731
738.849	2409.913
738.977	2365.567
739.105	2377.221
739.233	2356.702
739.362	2343.154
739.490	2330.683
739.618	2353.462
739.746	2353.394
739.874	2318.356
740.002	2340.125
740.130	2304.740
740.258	2299.817
740.387	2335.740
740.515	2326.010
740.643	2291.962
740.771	2330.385
740.899	2286.115
741.027	2273.885
741.155	2275.837
741.283	2272.702
741.412	2302.952
741.540	2277.923
741.668	2275.731
741.796	2291.856
741.924	2248.423
742.052	2267.365
742.180	2263.702
742.308	2217.798
742.437	2227.846
742.565	2234.365
742.693	2253.106
742.821	2222.529
742.949	2203.567
743.077	2180.548
743.205	2188.673
743.333	2182.817
743.462	2192.519
743.590	2160.510
743.718	2166.625
743.846	2168.038
743.974	2202.846
744.102	2154.087
744.230	2171.154
744.358	2160.269
744.487	2138.558
744.615	2117.779
744.743	2128.221
744.871	2120.827
744.999	2122.990
745.127	2118.404
745.255	2079.404
745.383	2097.615
745.512	2083.548
745.640	2084.106
745.768	2071.721
745.896	2091.288
746.024	2076.308
746.152	2065.885
746.280	2066.058
746.408	2052.058
746.537	2059.827
746.665	2056.500
746.793	2024.183
746.921	2020.875
747.049	2031.865
747.177	2017.260
747.305	2027.788
747.433	2025.760
747.562	1996.087
747.690	1994.202
747.818	1981.010
747.946	1962.673
748.074	1974.548
748.202	1966.971
748.330	1964.019
748.458	1953.692
748.587	1961.144
748.715	1969.375
748.843	1937.731
748.971	1930.394
749.099	1942.933
749.227	1936.952
749.355	1945.837
749.483	1907.144
749.612	1928.048
749.740	1929.663
749.868	1905.308
749.996	1901.058
750.124	1917.865
750.252	1880.462
750.380	1890.404
750.508	1883.952
750.637	1865.606
750.765	1884.144
750.893	1862.327
751.021	1850.375
751.149	1857.510
751.277	1845.808
751.405	1822.413
751.533	1855.115
751.662	1820.779
751.790	1821.490
751.918	1801.962
752.046	1808.404
752.174	1795.048
752.302	1783.712
752.430	1775.750
752.558	1778.971
752.687	1787.125
752.815	1777.558
752.943	1777.048
753.071	1751.740
753.199	1773.462
753.327	1767.683
753.455	1744.087
753.583	1725.587
753.712	1725.615
753.840	1740.288
753.968	1716.260
754.096	1725.837
754.224	1715.558
754.352	1704.577
754.480	1713.856
754.608	1704.298
754.737	1684.548
754.865	1703.712
754.993	1686.990
755.121	1683.865
755.249	1655.692
755.377	1649.990
755.505	1649.683
755.633	1642.135
755.762	1632.221
755.890	1642.144
756.018	1637.452
756.146	1613.904
756.274	1604.019
756.402	1607.423
756.530	1613.644
756.658	1601.029
756.787	1571.202
756.915	1574.731
757.043	1558.183
757.171	1567.173
757.299	1576.000
757.427	1554.365
757.555	1555.048
757.683	1552.462
757.812	1550.125
757.940	1533.048
758.068	1540.442
758.196	1533.000
758.324	1519.779
758.452	1527.144
758.580	1513.981
758.708	1516.481
758.837	1520.913
758.965	1517.635
759.093	1492.538
759.221	1467.038
759.349	1467.606
759.477	1457.827
759.605	1449.404
759.733	1467.827
759.862	1437.471
759.990	1454.240
760.118	1436.481
760.246	1440.721
760.374	1439.577
760.502	1431.067
760.630	1414.981
760.758	1412.173
760.887	1398.240
761.015	1398.913
761.143	1397.913
761.271	1391.452
761.399	1381.019
761.527	1387.481
761.655	1384.731
761.783	1361.183
761.912	1368.952
762.040	1362.365
762.168	1347.519
762.296	1339.577
762.424	1342.798
762.552	1337.038
762.680	1313.308
762.808	1344.000
762.937	1320.971
763.065	1299.923
763.193	1303.385
763.321	1296.471
763.449	1285.606
763.577	1272.481
763.705	1292.269
763.833	1287.106
763.962	1275.000
764.090	1260.846
764.218	1259.240
764.346	1252.269
764.474	1262.288
764.602	1235.827
764.730	1243.865
764.858	1229.731
764.987	1219.942
765.115	1221.865
765.243	1210.538
765.371	1209.288
765.499	1200.962
765.627	1209.990
765.755	1199.212
765.883	1184.971
766.012	1185.596
766.140	1180.587
766.268	1184.981
766.396	1169.769
766.524	1174.192
766.652	1153.096
766.780	1155.279
766.908	1162.740
767.037	1170.548
767.165	1149.827
767.293	1147.558
767.421	1151.769
767.549	1121.212
767.677	1150.115
767.805	1138.577
767.933	1136.231
768.062	1117.308
768.190	1114.471
768.318	1119.260
768.446	1104.260
768.574	1094.894
768.702	1107.587
768.830	1100.596
768.958	1083.923
769.087	1100.308
769.215	1084.846
769.343	1083.490
769.471	1096.635
769.599	1087.010
769.727	1077.519
769.855	1066.846
769.983	1096.779
770.112	1065.423
770.240	1064.260
770.368	1056.933
770.496	1049.913
770.624	1058.837
770.752	1041.346
770.880	1053.240
771.008	1043.865
771.137	1038.865
771.265	1018.471
771.393	1016.856
771.521	1031.308
771.649	1025.279
771.777	1051.558
771.905	1070.173
772.033	1053.894
772.162	1005.615
772.290	1005.702
772.418	1006.279
772.546	991.596
772.674	995.115
772.802	996.721
772.930	992.500
773.058	993.740
773.187	987.462
773.315	979.212
773.443	981.135
773.571	981.644
773.699	975.490
773.827	982.827
773.955	993.308
774.083	981.471
774.212	953.269
774.340	957.731
774.468	943.154
774.596	950.587
774.724	965.067
774.852	953.654
774.980	945.404
775.108	937.817
775.237	939.192
775.365	923.279
775.493	938.269
775.621	924.933
775.749	941.212
775.877	936.346
776.005	933.712
776.133	919.510
776.262	920.606
776.390	909.212
776.518	905.856
776.646	913.327
776.774	912.144
776.902	897.067
777.030	900.192
777.158	894.010
777.287	902.846
777.415	895.798
777.543	894.760
777.671	890.317
777.799	886.067
777.927	892.625
778.055	886.442
778.183	874.038
778.312	871.202
778.440	866.827
778.568	891.308
778.696	878.808
778.824	873.038
778.952	867.087
779.080	863.221
779.208	865.712
779.337	854.885
779.465	861.115
779.593	846.192
779.721	852.163
779.849	838.712
779.977	844.250
780.105	839.692
780.233	844.115
780.362	833.212
780.490	821.529
780.618	830.423
780.746	827.048
780.874	816.413
781.002	822.933
781.130	816.971
781.258	803.788
781.387	815.288
781.515	811.779
781.643	799.375
781.771	806.115
781.899	806.673
782.027	788.385
782.155	797.462
782.283	793.692
782.412	790.750
782.540	789.942
782.668	787.029
782.796	791.337
782.924	797.490
783.052	781.250
783.180	767.279
783.308	777.740
783.437	769.865
783.565	771.298
783.693	774.510
783.821	775.173
783.949	759.962
784.077	748.798
784.205	762.115
784.333	744.702
784.462	751.288
784.590	750.625
784.718	734.962
784.846	747.596
784.974	757.837
785.102	736.067
785.230	742.596
785.358	724.981
785.487	732.048
785.615	724.260
785.743	722.192
785.871	733.981
785.999	723.202
786.127	729.923
786.255	717.625
786.383	708.365
786.512	717.673
786.640	699.106
786.768	697.096
786.896	706.558
787.024	694.529
787.152	691.298
787.280	714.712
787.408	695.962
787.537	699.183
787.665	695.365
787.793	682.279
787.921	682.962
788.049	681.683
788.177	680.327
788.305	674.837
788.433	676.577
788.562	666.240
788.690	664.298
788.818	668.087
788.946	661.212
789.074	658.231
789.202	659.865
789.330	650.106
789.458	647.827
789.587	648.625
789.715	661.923
789.843	654.010
789.971	643.260
790.099	637.394
790.227	631.038
790.355	632.750
790.483	638.125
790.612	635.990
790.740	644.404
790.868	626.913
790.996	651.452
791.124	638.212
791.252	630.192
791.380	618.827
791.508	625.221
791.637	623.875
791.765	610.702
791.893	617.837
792.021	621.260
792.149	602.462
792.277	607.346
792.405	602.125
792.533	604.404
792.662	596.192
792.790	596.356
792.918	605.000
793.046	591.587
793.174	588.250
793.302	587.029
793.430	579.769
793.558	593.413
793.687	586.846
793.815	572.808
793.943	594.250
794.071	575.962
794.199	570.702
794.327	570.317
794.455	575.452
794.583	564.192
794.712	570.288
794.840	561.779
794.968	565.952
795.096	568.962
795.224	548.337
795.352	586.240
795.480	547.981
795.608	546.019
795.737	541.019
795.865	536.798
795.993	546.788
796.121	530.154
796.249	531.760
796.377	537.452
796.505	535.115
796.633	534.519
796.762	523.135
796.890	517.904
797.018	525.846
797.146	524.423
797.274	527.596
797.402	509.942
797.530	509.471
797.658	514.875
797.787	529.933
797.915	515.769
798.043	508.702
798.171	513.000
798.299	494.933
798.427	508.298
798.555	508.462
798.683	498.856
798.812	521.942
798.940	536.971
799.068	519.058
799.196	494.365
799.324	490.048
799.452	481.125
799.580	481.077
799.708	480.769
799.837	479.712
799.965	470.529
800.093	475.375
800.221	468.250
800.349	473.538
800.477	471.962
800.605	462.548
800.733	476.087
800.862	468.192
800.990	459.154
801.118	457.000
801.246	458.596
801.374	458.202
801.502	447.010
801.630	452.923
801.758	443.962
801.887	441.913
802.015	447.538
802.143	439.962
802.271	446.154
802.399	438.423
802.527	434.952
802.655	439.587
802.783	439.837
802.912	434.952
803.040	429.144
803.168	424.346
803.296	440.010
803.424	424.288
803.552	428.808
803.680	428.923
803.808	419.846
803.937	422.644
804.065	423.106
804.193	422.981
804.321	439.798
804.449	438.981
804.577	421.019
804.705	433.212
804.833	413.702
804.962	411.673
805.090	412.596
805.218	407.298
805.346	400.519
805.474	415.250
805.602	401.067
805.730	418.769
805.858	393.981
805.987	394.317
806.115	399.279
806.243	399.731
806.371	398.913
806.499	396.875
806.627	385.433
806.755	395.010
806.883	392.510
807.012	386.096
807.140	392.529
807.268	377.317
807.396	376.077
807.524	377.933
807.652	390.606
807.780	385.760
807.908	378.192
808.037	394.288
808.165	385.856
808.293	371.817
808.421	368.529
808.549	370.875
808.677	370.538
808.805	385.760
808.933	369.923
809.062	370.231
809.190	377.337
809.318	376.548
809.446	359.317
809.574	373.933
809.702	364.885
809.830	356.481
809.958	370.106
810.087	363.154
810.215	358.212
810.343	359.904
810.471	357.163
810.599	351.000
810.727	360.481
810.855	345.279
810.983	352.529
811.112	352.587
811.240	346.558
811.368	351.721
811.496	352.856
811.624	344.115
811.752	348.385
811.880	357.202
812.008	346.673
812.137	359.048
812.265	339.933
812.393	347.365
812.521	335.654
812.649	340.894
812.777	331.010
812.905	347.558
813.033	347.163
813.162	333.058
813.290	330.115
813.418	334.308
813.546	333.029
813.674	323.212
813.802	329.788
813.930	330.087
814.058	328.067
814.187	325.029
814.315	319.490
814.443	327.115
814.571	320.010
814.699	314.269
814.827	316.212
814.955	322.048
815.083	315.317
815.212	319.029
815.340	313.279
815.468	327.798
815.596	314.000
815.724	315.462
815.852	320.779
815.980	313.692
816.108	313.288
816.237	314.808
816.365	319.663
816.493	312.019
816.621	317.635
816.749	293.990
816.877	364.481
817.005	321.375
817.133	312.000
817.262	304.221
817.390	297.058
817.518	305.635
817.646	293.000
817.774	290.269
817.902	295.077
818.030	293.327
818.158	303.375
818.287	296.856
818.415	292.308
818.543	291.346
818.671	292.721
818.799	289.096
818.927	288.779
819.055	313.721
819.183	296.067
819.312	308.250
819.440	286.644
819.568	281.337
819.696	285.702
819.824	284.433
819.952	281.106
820.080	282.827
820.208	281.087
820.337	287.971
820.465	282.433
820.593	281.663
820.721	278.048
820.849	281.288
820.977	278.356
821.105	278.500
821.233	271.288
821.362	284.067
821.490	271.231
821.618	282.990
821.746	285.183
821.874	273.577
822.002	261.875
822.130	271.125
822.258	275.183
822.387	273.779
822.515	277.577
822.643	270.673
822.771	264.538
822.899	275.750
823.027	266.221
823.155	267.394
823.283	278.481
823.412	277.894
823.540	262.913
823.668	257.769
823.796	260.106
823.924	258.654
824.052	261.019
824.180	269.462
824.308	262.087
824.437	270.192
824.565	264.183
824.693	246.269
824.821	258.885
824.949	260.596
825.077	258.048
825.205	250.125
825.333	253.231
825.462	263.144
825.590	249.808
825.718	249.500
825.846	253.413
825.974	252.019
826.102	251.087
826.230	257.702
826.358	256.760
826.487	250.750
826.615	247.827
826.743	239.827
826.871	252.077
826.999	245.615
827.127	253.308
827.255	247.327
827.383	243.087
827.512	240.058
827.640	248.615
827.768	261.510
827.896	233.192
828.024	247.452
828.152	241.606
828.280	244.846
828.408	237.625
828.537	244.615
828.665	239.654
828.793	241.212
828.921	236.856
829.049	243.058
829.177	240.173
829.305	236.115
829.433	235.731
829.562	231.365
829.690	232.663
829.818	238.317
829.946	235.442
830.074	236.212
830.202	232.019
830.330	236.423
830.458	226.346
830.587	237.346
830.715	230.192
830.843	225.981
830.971	232.096
831.099	233.240
831.227	255.865
831.355	226.394
831.483	227.279
831.612	231.375
831.740	226.962
831.868	224.433
831.996	230.923
832.124	228.356
832.252	235.519
832.380	226.875
832.508	222.433
832.637	225.308
832.765	231.760
832.893	225.702
833.021	220.442
833.149	215.683
833.277	218.375
833.405	230.019
833.533	216.692
833.662	221.644
833.790	217.933
833.918	222.760
834.046	218.202
834.174	216.279
834.302	219.837
834.430	216.683
834.558	216.202
834.687	220.558
834.815	217.846
834.943	214.529
835.071	220.288
835.199	215.529
835.327	213.058
835.455	222.875
835.583	213.913
835.712	209.067
835.840	215.308
835.968	209.288
836.096	221.942
836.224	210.538
836.352	217.913
836.480	209.577
836.608	209.115
836.737	213.654
836.865	209.933
836.993	218.490
837.121	216.548
837.249	216.327
837.377	205.154
837.505	200.962
837.633	209.490
837.762	213.942
837.890	207.413
838.018	210.346
838.146	205.750
838.274	206.606
838.402	201.029
838.530	223.356
838.658	207.183
838.787	216.058
838.915	203.385
839.043	214.558
839.171	203.260
839.299	205.500
839.427	225.962
839.555	208.942
839.683	197.635
839.812	201.462
839.940	202.452
840.068	206.327
840.196	228.510
840.324	221.529
840.452	206.587
840.580	201.240
840.708	193.337
840.837	202.096
840.965	200.413
841.093	196.567
841.221	200.394
841.349	197.577
841.477	193.288
841.605	194.894
841.733	198.010
841.862	206.587
841.990	198.481
842.118	194.587
842.246	197.240
842.374	188.096
842.502	204.106
842.630	196.625
842.758	192.192
842.887	203.115
843.015	206.990
843.143	193.279
843.271	194.538
843.399	190.452
843.527	194.962
843.655	191.875
843.783	191.240
843.912	189.779
844.040	187.019
844.168	192.250
844.296	204.981
844.424	199.250
844.552	198.356
844.680	193.125
844.808	191.327
844.937	191.154
845.065	194.731
845.193	202.971
845.321	195.096
845.449	198.010
845.577	194.452
845.705	188.904
845.833	183.365
845.962	197.096
846.090	188.923
846.218	202.567
846.346	193.721
846.474	189.183
846.602	185.298
846.730	190.212
846.858	188.000
846.987	186.221
847.115	196.154
847.243	198.077
847.371	176.413
847.499	184.538
847.627	187.048
847.755	182.404
847.883	193.692
848.012	193.577
848.140	181.433
848.268	180.558
848.396	187.644
848.524	191.673
848.652	183.510
848.780	179.183
848.908	186.346
849.037	185.260
849.165	181.202
849.293	190.587
849.421	181.788
849.549	181.587
849.677	182.269
849.805	189.990
849.933	181.567
850.062	187.038
850.190	182.692
850.318	179.010
850.446	185.865
850.574	186.702
850.702	180.413
850.830	173.471
850.958	181.385
851.087	188.663
851.215	177.731
851.343	182.106
851.471	181.933
851.599	188.856
851.727	193.558
851.855	185.375
851.983	184.192
852.112	178.837
852.240	187.385
852.368	190.654
852.496	177.808
852.624	187.163
852.752	188.846
852.880	182.250
853.008	181.327
853.137	182.740
853.265	184.433
853.393	182.837
853.521	174.260
853.649	186.029
853.777	176.375
853.905	171.375
854.033	176.712
854.162	172.615
854.290	179.837
854.418	191.942
854.546	205.942
854.674	193.971
854.802	181.577
854.930	173.510
855.058	178.952
855.187	174.385
855.315	203.240
855.443	174.413
855.571	176.913
855.699	186.894
855.827	169.875
855.955	171.625
856.083	176.692
856.212	173.058
856.340	178.019
856.468	180.596
856.596	180.490
856.724	178.394
856.852	190.404
856.980	172.837
857.108	171.423
857.237	165.750
857.365	184.433
857.493	178.702
857.621	176.135
857.749	170.827
857.877	174.510
858.005	168.663
858.133	174.067
858.262	171.106
858.390	170.000
858.518	169.375
858.646	179.250
858.774	167.308
858.902	168.942
859.030	174.269
859.158	177.192
859.287	173.058
859.415	176.635
859.543	173.827
859.671	177.490
859.799	183.952
859.927	170.510
860.055	168.125
860.183	166.038
860.312	168.885
860.440	171.519
860.568	163.317
860.696	177.962
860.824	181.760
860.952	166.077
861.080	170.981
861.208	173.798
861.337	170.087
861.465	179.625
861.593	172.952
861.721	179.442
861.849	177.615
861.977	168.952
862.105	171.327
862.233	168.692
862.362	164.163
862.490	167.298
862.618	168.298
862.746	169.817
862.874	169.981
863.002	172.721
863.130	174.298
863.258	172.260
863.387	177.827
863.515	170.558
863.643	177.356
863.771	175.212
863.899	170.212
864.027	172.010
864.155	193.019
864.283	169.029
864.412	165.010
864.540	173.471
864.668	163.760
864.796	166.529
864.924	168.423
865.052	161.817
865.180	182.683
865.308	169.212
865.437	168.183
865.565	165.500
865.693	165.635
865.821	162.721
865.949	183.933
866.077	166.779
866.205	167.760
866.333	171.385
866.462	159.269
866.590	174.625
866.718	170.231
866.846	163.038
866.974	168.269
867.102	163.010
867.230	175.356
867.358	166.827
867.487	173.106
867.615	179.442
867.743	164.510
867.871	175.385
867.999	166.625
868.127	177.231
868.255	180.808
868.383	158.625
868.512	168.692
868.640	165.212
868.768	162.885
868.896	177.635
869.024	161.606
869.152	168.577
869.280	160.404
869.408	164.692
869.537	161.663
869.665	163.423
869.793	167.558
869.921	166.452
870.049	159.327
870.177	167.452
870.305	162.337
870.433	162.144
870.562	169.221
870.690	165.096
870.818	173.250
870.946	161.260
871.074	158.712
871.202	165.019
871.330	157.846
871.458	164.260
871.587	165.981
871.715	164.067
871.843	170.712
871.971	171.173
872.099	154.183
872.227	166.981
872.355	162.750
872.483	162.212
872.612	164.865
872.740	163.942
872.868	164.673
872.996	166.298
873.124	174.587
873.252	162.567
873.380	157.000
873.508	169.750
873.637	171.346
873.765	160.962
873.893	161.615
874.021	163.346
874.149	160.952
874.277	162.288
874.405	168.596
874.533	171.067
874.662	160.356
874.790	166.279
874.918	159.856
875.046	171.596
875.174	160.173
875.302	160.692
875.430	161.423
875.558	167.567
875.687	168.596
875.815	162.760
875.943	165.596
876.071	163.173
876.199	165.077
876.327	167.558
876.455	163.500
876.583	158.644
876.712	171.010
876.840	163.615
876.968	163.538
877.096	164.817
877.224	158.731
877.352	156.115
877.480	161.942
877.608	171.471
877.737	165.490
877.865	158.673
877.993	165.538
878.121	171.250
878.249	162.500
878.377	159.173
878.505	164.904
878.633	165.625
878.762	157.548
878.890	159.433
879.018	171.202
879.146	161.981
879.274	188.875
879.402	167.462
879.530	159.385
879.658	161.894
879.787	165.519
879.915	157.769
880.043	154.221
880.171	197.423
880.299	165.865
880.427	166.279
880.555	156.442
880.683	165.933
880.812	165.144
880.940	161.356
881.068	168.279
881.196	157.654
881.324	155.683
881.452	159.000
881.580	167.894
881.708	167.875
881.837	165.067
881.965	164.221
882.093	157.298
882.221	158.087
882.349	152.635
882.477	159.692
882.605	167.654
882.733	167.577
882.862	158.240
882.990	171.135
883.118	168.250
883.246	169.981
883.374	159.019
883.502	166.288
883.630	168.202
883.758	159.567
883.887	165.462
884.015	162.788
884.143	167.750
884.271	162.702
884.399	155.663
884.527	165.231
884.655	158.846
884.783	163.096
884.912	184.760
885.040	172.644
885.168	158.981
885.296	171.346
885.424	158.510
885.552	162.606
885.680	172.375
885.808	165.154
885.937	170.596
886.065	169.663
886.193	159.385
886.321	160.173
886.449	158.769
886.577	161.010
886.705	171.250
886.833	152.481
886.962	163.404
887.090	165.144
887.218	159.356
887.346	158.077
887.474	157.625
887.602	158.433
887.730	154.615
887.858	156.769
887.987	156.500
888.115	161.375
888.243	161.029
888.371	170.779
888.499	161.490
888.627	161.635
888.755	167.971
888.883	164.135
889.012	164.365
889.140	161.413
889.268	163.904
889.396	153.635
889.524	165.644
889.652	152.135
889.780	160.981
889.908	163.548
890.037	167.875
890.165	159.923
890.293	163.625
890.421	162.952
890.549	153.481
890.677	152.606
890.805	160.529
890.933	159.846
891.062	158.663
891.190	161.692
891.318	153.442
891.446	158.490
891.574	152.375
891.702	158.288
891.830	160.192
891.958	169.760
892.087	165.038
892.215	160.856
892.343	161.087
892.471	167.404
892.599	155.365
892.727	164.885
892.855	177.144
892.983	150.990
893.112	159.837
893.240	168.548
893.368	155.894
893.496	167.000
893.624	165.712
893.752	179.788
893.880	164.058
894.008	163.327
894.137	156.875
894.265	164.885
894.393	159.423
894.521	164.798
894.649	161.923
894.777	153.087
894.905	198.154
895.033	157.894
895.162	157.519
895.290	166.817
895.418	162.135
895.546	192.663
895.674	166.529
895.802	200.471
895.930	164.519
896.058	158.827
896.187	161.510
896.315	157.375
896.443	172.404
896.571	182.875
896.699	157.385
896.827	162.067
896.955	161.202
897.083	165.673
897.212	160.981
897.340	158.827
897.468	160.740
897.596	159.212
897.724	159.202
897.852	158.692
897.980	153.144
898.108	165.615
898.237	159.721
898.365	158.817
898.493	167.587
898.621	156.221
898.749	160.058
898.877	158.846
899.005	158.990
899.133	162.038
899.262	173.231
899.390	160.163
899.518	165.385
899.646	160.385
899.774	153.154
899.902	154.615
900.030	170.615
900.158	159.538
900.287	160.356
900.415	154.683
900.543	159.019
900.671	164.731
900.799	160.337
900.927	159.163
901.055	170.615
901.183	167.500
901.312	169.385
901.440	155.760
901.568	153.731
901.696	156.462
901.824	156.385
901.952	156.346
902.080	165.606
902.208	159.865
902.337	168.317
902.465	157.952
902.593	175.702
902.721	183.048
902.849	178.471
902.977	160.337
903.105	163.413
903.233	164.135
903.362	155.202
903.490	169.010
903.618	161.596
903.746	154.548
903.874	162.750
904.002	157.260
904.130	172.837
904.258	156.971
904.387	164.308
904.515	155.894
904.643	166.163
904.771	160.856
904.899	155.846
905.027	166.981
905.155	158.221
905.283	154.087
905.412	176.462
905.540	165.481
905.668	162.250
905.796	160.923
905.924	163.452
906.052	160.433
906.180	167.106
906.308	155.587
906.437	154.644
906.565	163.635
906.693	170.587
906.821	157.875
906.949	159.615
907.077	154.856
907.205	166.702
907.333	154.106
907.462	160.221
907.590	161.087
907.718	157.192
907.846	169.837
907.974	157.500
908.102	161.087
908.230	163.712
908.358	160.375
908.487	157.115
908.615	168.433
908.743	169.298
908.871	162.000
908.999	154.375
909.127	164.490
909.255	171.827
909.383	158.808
909.512	158.240
909.640	170.135
909.768	158.000
909.896	167.356
910.024	167.298
910.152	166.596
910.280	165.798
910.408	158.615
910.537	158.173
910.665	165.721
910.793	163.779
910.921	165.962
911.049	171.529
911.177	170.808
911.305	163.010
911.433	189.077
911.562	169.144
911.690	165.404
911.818	161.837
911.946	164.173
912.074	171.192
912.202	164.327
912.330	176.663
912.458	156.183
912.587	166.442
912.715	168.692
912.843	176.663
912.971	171.019
913.099	185.173
913.227	174.587
913.355	172.673
913.483	177.962
913.612	176.240
913.740	196.010
913.868	168.981
