90_120_0_Pol_at_750.00nm_cut_at_1179.00Y_01.dat
03.07.2023
11:30:41
cut middle at Y: 1179.00
top cursor: 1231 down cursor: 1127 mean of: 104 lines , 2560 datapoints
wavelength(nm)	intensity[arb. units]
585.996	11462.154
586.124	11237.875
586.252	11225.202
586.380	11246.481
586.508	11292.115
586.637	11376.615
586.765	11331.288
586.893	11360.519
587.021	11421.654
587.149	11396.971
587.277	11454.990
587.405	11421.038
587.533	11476.288
587.662	11525.913
587.790	11473.740
587.918	11465.327
588.046	11450.712
588.174	11456.115
588.302	11487.471
588.430	11466.327
588.558	11487.250
588.687	11485.587
588.815	11446.135
588.943	11460.702
589.071	11459.510
589.199	11463.538
589.327	11459.106
589.455	11503.077
589.583	11452.067
589.712	11419.000
589.840	11414.923
589.968	11402.817
590.096	11429.942
590.224	11409.423
590.352	11456.202
590.480	11387.875
590.608	11389.865
590.737	11393.125
590.865	11479.404
590.993	11331.702
591.121	11346.962
591.249	11371.644
591.377	11354.212
591.505	11447.087
591.633	11342.837
591.762	11337.798
591.890	11335.750
592.018	11441.433
592.146	11372.404
592.274	11362.721
592.402	11331.519
592.530	11487.615
592.658	11405.904
592.787	11373.971
592.915	11462.346
593.043	11351.231
593.171	11384.346
593.299	11400.231
593.427	11347.519
593.555	11397.635
593.683	11391.144
593.812	11400.115
593.940	11415.019
594.068	11429.269
594.196	11407.635
594.324	11452.981
594.452	11611.538
594.580	11507.404
594.708	11516.644
594.837	11479.856
594.965	11608.442
595.093	11589.452
595.221	11653.567
595.349	11628.567
595.477	11641.519
595.605	11653.038
595.733	11656.135
595.862	11711.962
595.990	11696.962
596.118	11710.260
596.246	11821.635
596.374	11732.385
596.502	11783.163
596.630	11806.183
596.758	11757.894
596.887	11790.279
597.015	11801.404
597.143	11819.154
597.271	11819.827
597.399	11828.635
597.527	11821.606
597.655	11828.192
597.783	11845.135
597.912	11845.173
598.040	11881.904
598.168	11801.683
598.296	11758.471
598.424	11926.683
598.552	11794.654
598.680	11811.615
598.808	11846.317
598.937	11793.087
599.065	11761.865
599.193	11839.548
599.321	11794.106
599.449	11763.452
599.577	11728.846
599.705	11752.731
599.833	11719.327
599.962	11682.788
600.090	11703.471
600.218	11669.471
600.346	11705.279
600.474	11623.365
600.602	11611.413
600.730	11643.433
600.858	11628.029
600.987	11710.894
601.115	11647.106
601.243	11704.856
601.371	11704.471
601.499	11718.288
601.627	11704.644
601.755	11635.865
601.883	11710.923
602.012	11614.856
602.140	11709.115
602.268	11668.010
602.396	11798.962
602.524	11716.231
602.652	11798.221
602.780	11768.308
602.908	11782.000
603.037	11858.288
603.165	11853.221
603.293	11885.308
603.421	11891.163
603.549	11896.327
603.677	11931.721
603.805	11929.625
603.933	11955.673
604.062	12038.654
604.190	12053.423
604.318	12080.712
604.446	12053.894
604.574	12138.077
604.702	12155.827
604.830	12128.942
604.958	12145.587
605.087	12221.673
605.215	12287.298
605.343	12373.298
605.471	12320.337
605.599	12318.394
605.727	12453.500
605.855	12408.702
605.983	12428.510
606.112	12463.923
606.240	12474.538
606.368	12473.615
606.496	12441.885
606.624	12534.779
606.752	12482.760
606.880	12536.635
607.008	12515.827
607.137	12537.298
607.265	12595.760
607.393	12587.183
607.521	12649.058
607.649	12527.077
607.777	12572.404
607.905	12621.212
608.033	12524.673
608.162	12574.558
608.290	12539.663
608.418	12622.885
608.546	12568.038
608.674	12578.462
608.802	12508.740
608.930	12541.817
609.058	12471.913
609.187	12487.596
609.315	12493.788
609.443	12447.327
609.571	12565.394
609.699	12435.942
609.827	12500.096
609.955	12425.615
610.083	12360.337
610.212	12357.269
610.340	12317.769
610.468	12336.154
610.596	12330.933
610.724	12286.817
610.852	12330.423
610.980	12309.529
611.108	12245.904
611.237	12254.933
611.365	12286.731
611.493	12252.221
611.621	12237.192
611.749	12253.529
611.877	12284.596
612.005	12229.875
612.133	12304.558
612.262	12247.692
612.390	12337.567
612.518	12331.375
612.646	12299.308
612.774	12391.769
612.902	12352.712
613.030	12334.817
613.158	12306.587
613.287	12409.337
613.415	12334.971
613.543	12372.577
613.671	12354.625
613.799	12392.827
613.927	12424.442
614.055	12427.462
614.183	12427.462
614.312	12383.096
614.440	12546.721
614.568	12523.048
614.696	12544.865
614.824	12498.635
614.952	12574.769
615.080	12573.587
615.208	12612.337
615.337	12690.740
615.465	12617.712
615.593	12679.952
615.721	12631.010
615.849	12748.173
615.977	12698.327
616.105	12742.096
616.233	12727.673
616.362	12790.654
616.490	12754.538
616.618	12819.135
616.746	12933.019
616.874	12894.183
617.002	12886.529
617.130	12878.827
617.258	12864.625
617.387	12923.692
617.515	12930.856
617.643	12902.135
617.771	13010.067
617.899	12948.048
618.027	12962.894
618.155	13007.221
618.283	13005.269
618.412	13023.971
618.540	13100.529
618.668	13024.144
618.796	13029.288
618.924	12964.808
619.052	13019.260
619.180	12964.212
619.308	12945.846
619.437	12959.769
619.565	12984.038
619.693	12948.760
619.821	13001.433
619.949	12920.644
620.077	12952.260
620.205	12997.952
620.333	13007.721
620.462	12926.721
620.590	12945.712
620.718	12959.750
620.846	12969.337
620.974	12936.615
621.102	12983.038
621.230	12945.798
621.358	13089.808
621.487	12924.442
621.615	12906.260
621.743	12851.298
621.871	12944.990
621.999	12849.010
622.127	12866.462
622.255	12833.269
622.383	12812.731
622.512	12814.433
622.640	12809.538
622.768	12851.942
622.896	12868.913
623.024	12819.375
623.152	12794.837
623.280	12885.442
623.408	12774.683
623.537	12795.683
623.665	12758.019
623.793	12817.673
623.921	12798.087
624.049	12755.058
624.177	12759.154
624.305	12718.904
624.433	12756.933
624.562	12764.788
624.690	12866.490
624.818	12656.173
624.946	12675.183
625.074	12682.212
625.202	12643.558
625.330	12683.173
625.458	12761.837
625.587	12658.337
625.715	12706.981
625.843	12626.260
625.971	12700.385
626.099	12656.365
626.227	12686.404
626.355	12628.663
626.483	12695.673
626.612	12645.288
626.740	12658.077
626.868	12655.548
626.996	12695.481
627.124	12643.952
627.252	12606.106
627.380	12642.077
627.508	12605.375
627.637	12627.942
627.765	12637.346
627.893	12671.192
628.021	12713.106
628.149	12614.346
628.277	12712.423
628.405	12656.038
628.533	12661.135
628.662	12671.106
628.790	12738.519
628.918	12685.010
629.046	12817.365
629.174	12705.096
629.302	12732.298
629.430	12662.096
629.558	12762.971
629.687	12692.510
629.815	12753.654
629.943	12846.231
630.071	12789.404
630.199	12777.462
630.327	12799.462
630.455	12816.663
630.583	12793.577
630.712	12841.442
630.840	12845.135
630.968	12865.567
631.096	12856.481
631.224	12851.702
631.352	12988.096
631.480	12875.010
631.608	13064.317
631.737	12888.413
631.865	13021.712
631.993	12977.971
632.121	13113.010
632.249	12946.644
632.377	12925.404
632.505	12926.702
632.633	12976.125
632.762	12883.913
632.890	12910.192
633.018	12919.606
633.146	12924.192
633.274	12892.548
633.402	12923.240
633.530	12886.500
633.658	12878.519
633.787	12873.942
633.915	12859.635
634.043	12881.279
634.171	12918.038
634.299	12840.308
634.427	12797.548
634.555	13053.962
634.683	12809.712
634.812	12791.029
634.940	12754.808
635.068	12799.019
635.196	12748.260
635.324	12731.481
635.452	12755.087
635.580	12830.962
635.708	12690.875
635.837	12736.808
635.965	12660.327
636.093	12679.308
636.221	12597.221
636.349	12561.760
636.477	12540.538
636.605	12583.221
636.733	12524.779
636.862	12503.183
636.990	12526.135
637.118	12453.894
637.246	12427.885
637.374	12570.577
637.502	12380.135
637.630	12376.115
637.758	12344.462
637.887	12288.481
638.015	12424.606
638.143	12342.087
638.271	12256.529
638.399	12307.442
638.527	12173.702
638.655	12209.548
638.783	12168.817
638.912	12236.962
639.040	12145.029
639.168	12090.654
639.296	12078.923
639.424	12153.019
639.552	12077.308
639.680	12136.279
639.808	12050.135
639.937	12017.798
640.065	11956.683
640.193	11970.865
640.321	12053.356
640.449	12047.904
640.577	11961.990
640.705	11996.721
640.833	11972.769
640.962	12034.654
641.090	11904.240
641.218	11925.606
641.346	12005.048
641.474	11945.087
641.602	11915.231
641.730	11886.808
641.858	11871.913
641.987	11872.712
642.115	12027.087
642.243	11882.865
642.371	12049.260
642.499	11884.529
642.627	11930.644
642.755	11872.702
642.883	11867.683
643.012	11847.654
643.140	11883.971
643.268	11906.154
643.396	11816.529
643.524	11838.337
643.652	11913.788
643.780	11813.712
643.908	11799.087
644.037	11900.058
644.165	11896.490
644.293	11980.404
644.421	11812.692
644.549	11838.010
644.677	11825.702
644.805	11794.625
644.933	11760.654
645.062	11816.163
645.190	11922.404
645.318	11809.452
645.446	11717.538
645.574	11707.702
645.702	11793.721
645.830	11736.644
645.958	11701.779
646.087	11721.750
646.215	11648.990
646.343	11672.981
646.471	11848.433
646.599	11629.327
646.727	11641.740
646.855	11624.673
646.983	11604.817
647.112	11677.942
647.240	11593.221
647.368	11686.538
647.496	11597.702
647.624	11547.135
647.752	11537.163
647.880	11490.654
648.008	11531.577
648.137	11568.048
648.265	11477.692
648.393	11544.288
648.521	11462.990
648.649	11577.885
648.777	11491.077
648.905	11429.183
649.033	11480.413
649.162	11327.740
649.290	11322.788
649.418	11303.788
649.546	11457.433
649.674	11282.740
649.802	11217.981
649.930	11203.240
650.058	11163.192
650.187	11216.990
650.315	11130.144
650.443	11166.413
650.571	11084.423
650.699	11059.558
650.827	11008.212
650.955	11029.240
651.083	11080.202
651.212	10960.413
651.340	10981.702
651.468	10919.779
651.596	10949.010
651.724	10920.740
651.852	10838.519
651.980	10868.048
652.108	10841.625
652.237	10835.904
652.365	10783.087
652.493	10739.894
652.621	10781.913
652.749	10753.962
652.877	10732.990
653.005	10750.769
653.133	10680.029
653.262	10627.904
653.390	10621.087
653.518	10735.712
653.646	10563.385
653.774	10566.712
653.902	10657.856
654.030	10587.337
654.158	10519.644
654.287	10563.231
654.415	10475.135
654.543	10513.606
654.671	10471.087
654.799	10421.808
654.927	10415.442
655.055	10354.019
655.183	10367.913
655.312	10352.327
655.440	10325.750
655.568	10332.442
655.696	10371.135
655.824	10305.587
655.952	10320.538
656.080	10260.606
656.208	10251.462
656.337	10264.183
656.465	10402.058
656.593	10227.750
656.721	10253.923
656.849	10287.942
656.977	10077.740
657.105	10107.567
657.233	10139.625
657.362	10176.173
657.490	10106.962
657.618	10081.538
657.746	10062.971
657.874	9977.365
658.002	9930.538
658.130	9922.317
658.258	9905.548
658.387	9886.683
658.515	9841.885
658.643	9811.952
658.771	9879.385
658.899	9805.462
659.027	9822.327
659.155	9778.163
659.283	9744.615
659.412	9753.904
659.540	9736.375
659.668	9761.779
659.796	9806.106
659.924	9778.442
660.052	9801.923
660.180	9694.981
660.308	9784.058
660.437	9736.144
660.565	9694.663
660.693	9596.567
660.821	9776.760
660.949	9585.500
661.077	9613.644
661.205	9740.962
661.333	9573.433
661.462	9522.308
661.590	9630.990
661.718	9522.942
661.846	9567.240
661.974	9493.769
662.102	9462.529
662.230	9493.019
662.358	9325.365
662.487	9409.087
662.615	9420.587
662.743	9417.865
662.871	9373.221
662.999	9340.394
663.127	9326.212
663.255	9290.952
663.383	9411.712
663.512	9227.788
663.640	9269.933
663.768	9321.327
663.896	9255.327
664.024	9213.904
664.152	9174.952
664.280	9254.644
664.408	9129.885
664.537	9133.317
664.665	9180.837
664.793	9131.240
664.921	9113.913
665.049	9167.933
665.177	9078.298
665.305	9086.875
665.433	9090.337
665.562	9217.471
665.690	9081.692
665.818	9204.933
665.946	8974.500
666.074	8997.173
666.202	8989.510
666.330	8928.135
666.458	9363.038
666.587	8916.135
666.715	8936.442
666.843	8883.510
666.971	8908.683
667.099	8890.490
667.227	8960.837
667.355	8929.923
667.483	8843.827
667.612	8864.048
667.740	8822.308
667.868	8780.760
667.996	8751.096
668.124	8813.769
668.252	8873.962
668.380	8729.808
668.508	8762.010
668.637	8714.279
668.765	8711.904
668.893	8711.106
669.021	8617.500
669.149	8695.990
669.277	8562.875
669.405	8702.673
669.533	8639.077
669.662	8575.933
669.790	8534.942
669.918	8585.144
670.046	8661.375
670.174	8464.115
670.302	8495.048
670.430	8421.952
670.558	8468.385
670.687	8610.933
670.815	8411.144
670.943	8417.510
671.071	8341.856
671.199	8309.558
671.327	8318.250
671.455	8364.279
671.583	8292.817
671.712	8254.385
671.840	8325.846
671.968	8423.000
672.096	8374.913
672.224	8177.740
672.352	8168.798
672.480	8131.942
672.608	8163.212
672.737	8106.279
672.865	8043.250
672.993	8066.183
673.121	8035.538
673.249	8003.721
673.377	7991.077
673.505	7976.240
673.633	8013.000
673.762	7922.173
673.890	7931.212
674.018	7936.260
674.146	7870.548
674.274	7865.279
674.402	7884.875
674.530	7831.817
674.658	7805.231
674.787	7770.769
674.915	7890.442
675.043	7737.740
675.171	7750.885
675.299	7672.740
675.427	7668.962
675.555	7653.798
675.683	7650.827
675.812	7606.538
675.940	7570.981
676.068	7561.750
676.196	7553.904
676.324	7510.375
676.452	7464.817
676.580	7437.548
676.708	7423.173
676.837	7404.096
676.965	7505.288
677.093	7542.654
677.221	7399.183
677.349	7345.394
677.477	7399.067
677.605	7264.962
677.733	7315.962
677.862	7277.365
677.990	7270.865
678.118	7326.635
678.246	7247.038
678.374	7280.740
678.502	7189.375
678.630	7119.577
678.758	7165.087
678.887	7277.298
679.015	7045.654
679.143	7048.827
679.271	7054.058
679.399	7021.654
679.527	7064.404
679.655	7105.731
679.783	6989.423
679.912	6970.163
680.040	7146.875
680.168	6933.240
680.296	6964.798
680.424	6927.808
680.552	6876.413
680.680	6859.587
680.808	6807.990
680.937	6814.240
681.065	6873.740
681.193	6815.577
681.321	6778.413
681.449	6809.375
681.577	6733.894
681.705	6746.202
681.833	6757.692
681.962	6706.433
682.090	6657.615
682.218	6657.885
682.346	6682.125
682.474	6618.519
682.602	6620.510
682.730	6651.865
682.858	6592.048
682.987	6578.077
683.115	6609.125
683.243	6552.250
683.371	6566.981
683.499	6513.365
683.627	6536.490
683.755	6497.442
683.883	6485.615
684.012	6491.567
684.140	6430.288
684.268	6438.933
684.396	6501.817
684.524	6444.260
684.652	6461.606
684.780	6437.981
684.908	6422.875
685.037	6421.288
685.165	6372.702
685.293	6457.154
685.421	6364.894
685.549	6357.913
685.677	6315.510
685.805	6367.577
685.933	6302.269
686.062	6311.798
686.190	6276.587
686.318	6268.106
686.446	6256.279
686.574	6206.385
686.702	6267.846
686.830	6171.433
686.958	6259.423
687.087	6145.096
687.215	6167.644
687.343	6171.240
687.471	6275.538
687.599	6062.865
687.727	6076.942
687.855	6066.913
687.983	6041.442
688.112	6087.548
688.240	6056.135
688.368	6043.942
688.496	6003.202
688.624	5960.654
688.752	6142.250
688.880	5974.337
689.008	5948.298
689.137	5949.212
689.265	5884.683
689.393	5902.981
689.521	5879.740
689.649	5981.567
689.777	5915.385
689.905	5954.798
690.033	5806.952
690.162	5804.346
690.290	5844.529
690.418	5771.779
690.546	5836.712
690.674	5805.548
690.802	5803.510
690.930	5760.385
691.058	5757.346
691.187	5715.587
691.315	5690.721
691.443	5669.087
691.571	5716.654
691.699	5632.029
691.827	5625.760
691.955	5628.269
692.083	5611.981
692.212	5587.692
692.340	5567.635
692.468	5607.740
692.596	5591.856
692.724	5526.558
692.852	5558.577
692.980	5561.942
693.108	5591.779
693.237	5465.673
693.365	5485.173
693.493	5467.308
693.621	5474.548
693.749	5408.740
693.877	5441.788
694.005	5353.106
694.133	5353.962
694.262	5424.048
694.390	5297.913
694.518	5319.702
694.646	5319.750
694.774	5258.885
694.902	5259.365
695.030	5256.798
695.158	5225.933
695.287	5252.510
695.415	5225.106
695.543	5192.423
695.671	5152.500
695.799	5257.375
695.927	5160.663
696.055	5177.462
696.183	5110.885
696.312	5260.375
696.440	5100.212
696.568	5094.750
696.696	5008.250
696.824	4994.885
696.952	4986.394
697.080	4998.529
697.208	4922.942
697.337	4947.087
697.465	4922.019
697.593	4902.327
697.721	5012.125
697.849	4888.577
697.977	4895.615
698.105	4940.644
698.233	4869.433
698.362	4800.894
698.490	4925.721
698.618	4774.481
698.746	4760.971
698.874	4837.567
699.002	4789.519
699.130	4769.981
699.258	4735.260
699.387	4670.442
699.515	4714.442
699.643	4721.404
699.771	4760.183
699.899	4651.260
700.027	4619.221
700.155	4683.904
700.283	4545.337
700.412	4588.837
700.540	4586.250
700.668	4649.846
700.796	4548.750
700.924	4564.317
701.052	4546.923
701.180	4544.269
701.308	4492.769
701.437	4475.971
701.565	4449.538
701.693	4492.538
701.821	4640.106
701.949	4400.394
702.077	4420.394
702.205	4465.779
702.333	4380.644
702.462	4350.452
702.590	4399.462
702.718	4302.462
702.846	4485.019
702.974	4276.625
703.102	4280.933
703.230	4303.481
703.358	4257.375
703.487	4238.077
703.615	4234.567
703.743	4188.500
703.871	4182.904
703.999	4183.702
704.127	4159.356
704.255	4147.567
704.383	4155.923
704.512	4207.750
704.640	4177.048
704.768	4205.317
704.896	4083.202
705.024	4012.750
705.152	4079.327
705.280	4099.202
705.408	3987.510
705.537	4004.048
705.665	3991.154
705.793	3982.769
705.921	3993.067
706.049	3929.817
706.177	3981.962
706.305	3905.058
706.433	3941.885
706.562	3921.615
706.690	3934.038
706.818	3912.096
706.946	3856.519
707.074	3823.808
707.202	3819.962
707.330	3813.856
707.458	3790.827
707.587	3761.962
707.715	3791.058
707.843	3799.365
707.971	3799.865
708.099	3727.885
708.227	3707.577
708.355	3709.596
708.483	3679.404
708.612	3686.529
708.740	3657.298
708.868	3659.048
708.996	3707.288
709.124	3687.529
709.252	3650.952
709.380	3649.317
709.508	3609.779
709.637	3631.404
709.765	3582.962
709.893	3623.356
710.021	3550.587
710.149	3649.462
710.277	3526.731
710.405	3533.212
710.533	3526.231
710.662	3482.308
710.790	3618.346
710.918	3471.769
711.046	3538.231
711.174	3468.058
711.302	3499.933
711.430	3447.971
711.558	3475.567
711.687	3459.385
711.815	3404.635
711.943	3398.433
712.071	3389.317
712.199	3419.048
712.327	3456.269
712.455	3377.087
712.583	3520.788
712.712	3379.625
712.840	3399.788
712.968	3334.260
713.096	3326.404
713.224	3299.712
713.352	3303.740
713.480	3252.615
713.608	3242.654
713.737	3241.308
713.865	3291.577
713.993	3259.029
714.121	3253.962
714.249	3192.606
714.377	3190.442
714.505	3193.048
714.633	3205.433
714.762	3170.163
714.890	3158.529
715.018	3157.250
715.146	3184.279
715.274	3133.327
715.402	3114.981
715.530	3111.635
715.658	3160.115
715.787	3113.471
715.915	3187.221
716.043	3100.135
716.171	3207.904
716.299	3055.933
716.427	3126.606
716.555	3028.654
716.683	3054.510
716.812	3029.183
716.940	3025.250
717.068	2977.644
717.196	3149.904
717.324	3018.433
717.452	3009.365
717.580	3044.510
717.708	2961.269
717.837	2970.231
717.965	2994.202
718.093	2957.519
718.221	2984.087
718.349	3025.010
718.477	2901.923
718.605	3011.000
718.733	2912.510
718.862	2954.837
718.990	2873.558
719.118	2956.904
719.246	2858.625
719.374	2848.452
719.502	2907.019
719.630	2991.442
719.758	2836.673
719.887	2806.577
720.015	2847.000
720.143	2874.269
720.271	2776.260
720.399	2835.962
720.527	2783.673
720.655	2871.702
720.783	2765.894
720.912	2751.490
721.040	2750.702
721.168	2783.740
721.296	2698.337
721.424	2713.433
721.552	2704.808
721.680	2786.596
721.808	2721.269
721.937	2682.433
722.065	2735.010
722.193	2689.788
722.321	2694.615
722.449	2666.856
722.577	2630.163
722.705	2624.240
722.833	2653.663
722.962	2648.779
723.090	2632.760
723.218	2609.462
723.346	2647.904
723.474	2586.192
723.602	2559.096
723.730	2559.288
723.858	2550.817
723.987	2579.250
724.115	2536.510
724.243	2578.096
724.371	2539.365
724.499	2524.837
724.627	2527.298
724.755	2518.375
724.883	2590.327
725.012	2623.548
725.140	2545.135
725.268	2498.798
725.396	2518.500
725.524	2566.933
725.652	2470.952
725.780	2528.442
725.908	2479.510
726.037	2472.913
726.165	2468.221
726.293	2449.135
726.421	2455.798
726.549	2466.202
726.677	2448.154
726.805	2418.587
726.933	2421.577
727.062	2423.587
727.190	2410.442
727.318	2397.760
727.446	2392.808
727.574	2375.827
727.702	2362.538
727.830	2368.635
727.958	2384.952
728.087	2379.404
728.215	2370.010
728.343	2326.846
728.471	2332.067
728.599	2356.663
728.727	2315.625
728.855	2316.154
728.983	2308.317
729.112	2302.587
729.240	2292.712
729.368	2300.519
729.496	2287.356
729.624	2292.673
729.752	2287.712
729.880	2273.846
730.008	2273.038
730.137	2242.846
730.265	2247.779
730.393	2254.721
730.521	2237.394
730.649	2223.048
730.777	2208.548
730.905	2207.404
731.033	2174.865
731.162	2200.990
731.290	2211.606
731.418	2192.788
731.546	2178.173
731.674	2185.933
731.802	2177.519
731.930	2183.904
732.058	2148.788
732.187	2149.500
732.315	2154.096
732.443	2162.125
732.571	2153.019
732.699	2134.942
732.827	2145.163
732.955	2133.077
733.083	2118.673
733.212	2111.423
733.340	2135.721
733.468	2104.183
733.596	2098.635
733.724	2079.635
733.852	2085.798
733.980	2067.644
734.108	2092.827
734.237	2078.221
734.365	2079.692
734.493	2050.731
734.621	2067.144
734.749	2075.221
734.877	2048.471
735.005	2043.394
735.133	2055.365
735.262	2048.558
735.390	2022.423
735.518	2036.298
735.646	2040.981
735.774	2039.000
735.902	2026.731
736.030	2009.462
736.158	2026.423
736.287	2019.808
736.415	2020.462
736.543	1998.750
736.671	1987.644
736.799	2001.606
736.927	1997.279
737.055	1996.442
737.183	1960.212
737.312	1961.115
737.440	1971.298
737.568	1960.308
737.696	1952.433
737.824	1968.375
737.952	2165.096
738.080	1941.048
738.208	1952.279
738.337	1925.923
738.465	1938.692
738.593	1924.058
738.721	1918.692
738.849	1938.865
738.977	1903.913
739.105	1936.135
739.233	1916.865
739.362	1893.404
739.490	1902.856
739.618	1903.029
739.746	1894.115
739.874	1877.038
740.002	1886.288
740.130	1854.673
740.258	1871.106
740.387	1882.375
740.515	1867.865
740.643	1846.048
740.771	1870.394
740.899	1852.096
741.027	1838.260
741.155	1841.875
741.283	1832.356
741.412	1857.548
741.540	1826.250
741.668	1812.894
741.796	1833.125
741.924	1809.519
742.052	1818.808
742.180	1816.423
742.308	1802.404
742.437	1794.538
742.565	1805.683
742.693	1808.683
742.821	1801.250
742.949	1780.356
743.077	1748.000
743.205	1760.885
743.333	1757.548
743.462	1766.173
743.590	1757.798
743.718	1751.356
743.846	1752.769
743.974	1762.760
744.102	1730.462
744.230	1737.817
744.358	1732.125
744.487	1721.442
744.615	1709.250
744.743	1720.779
744.871	1715.577
744.999	1696.058
745.127	1721.548
745.255	1679.750
745.383	1688.154
745.512	1672.904
745.640	1685.240
745.768	1685.115
745.896	1680.606
746.024	1671.721
746.152	1667.173
746.280	1663.654
746.408	1662.019
746.537	1649.433
746.665	1670.894
746.793	1637.163
746.921	1638.260
747.049	1640.635
747.177	1635.481
747.305	1645.385
747.433	1642.250
747.562	1617.365
747.690	1630.942
747.818	1610.356
747.946	1614.260
748.074	1598.029
748.202	1606.923
748.330	1591.106
748.458	1584.529
748.587	1595.173
748.715	1596.885
748.843	1559.538
748.971	1570.173
749.099	1588.596
749.227	1580.971
749.355	1592.913
749.483	1553.981
749.612	1580.337
749.740	1568.904
749.868	1565.058
749.996	1563.413
750.124	1559.135
750.252	1548.750
750.380	1557.010
750.508	1538.788
750.637	1534.048
750.765	1545.625
750.893	1522.635
751.021	1529.356
751.149	1528.048
751.277	1506.337
751.405	1514.452
751.533	1528.817
751.662	1496.933
751.790	1503.702
751.918	1498.683
752.046	1490.673
752.174	1471.433
752.302	1480.346
752.430	1468.490
752.558	1468.808
752.687	1471.548
752.815	1463.962
752.943	1454.048
753.071	1448.452
753.199	1467.846
753.327	1463.385
753.455	1439.337
753.583	1427.856
753.712	1425.125
753.840	1452.317
753.968	1429.663
754.096	1435.798
754.224	1435.885
754.352	1423.731
754.480	1435.394
754.608	1410.788
754.737	1411.471
754.865	1411.423
754.993	1419.654
755.121	1399.923
755.249	1384.856
755.377	1363.212
755.505	1396.577
755.633	1383.010
755.762	1369.981
755.890	1377.279
756.018	1364.000
756.146	1349.798
756.274	1346.154
756.402	1354.654
756.530	1364.567
756.658	1352.663
756.787	1335.635
756.915	1340.010
757.043	1329.529
757.171	1333.923
757.299	1326.663
757.427	1310.019
757.555	1316.442
757.683	1315.067
757.812	1320.240
757.940	1307.510
758.068	1305.817
758.196	1305.260
758.324	1293.981
758.452	1304.115
758.580	1300.144
758.708	1296.269
758.837	1311.683
758.965	1305.404
759.093	1289.490
759.221	1270.010
759.349	1263.404
759.477	1270.500
759.605	1262.962
759.733	1274.183
759.862	1258.048
759.990	1253.481
760.118	1249.875
760.246	1267.385
760.374	1256.250
760.502	1249.106
760.630	1235.644
760.758	1232.365
760.887	1234.067
761.015	1226.750
761.143	1239.808
761.271	1225.913
761.399	1218.615
761.527	1225.337
761.655	1227.894
761.783	1202.096
761.912	1204.279
762.040	1207.481
762.168	1188.173
762.296	1186.654
762.424	1189.288
762.552	1188.106
762.680	1162.490
762.808	1191.221
762.937	1172.240
763.065	1149.885
763.193	1158.250
763.321	1151.644
763.449	1144.452
763.577	1134.894
763.705	1150.288
763.833	1148.192
763.962	1137.260
764.090	1125.952
764.218	1128.125
764.346	1114.635
764.474	1121.452
764.602	1116.096
764.730	1117.529
764.858	1118.519
764.987	1110.740
765.115	1096.000
765.243	1086.933
765.371	1088.644
765.499	1084.346
765.627	1089.173
765.755	1088.135
765.883	1078.442
766.012	1079.394
766.140	1071.702
766.268	1068.596
766.396	1071.683
766.524	1063.721
766.652	1054.856
766.780	1054.462
766.908	1058.952
767.037	1074.269
767.165	1055.923
767.293	1059.856
767.421	1061.260
767.549	1039.221
767.677	1064.779
767.805	1037.221
767.933	1047.750
768.062	1038.250
768.190	1030.365
768.318	1041.365
768.446	1028.010
768.574	1021.115
768.702	1034.163
768.830	1025.519
768.958	1020.558
769.087	1029.010
769.215	1023.904
769.343	1011.269
769.471	1032.490
769.599	1019.577
769.727	1011.962
769.855	1003.385
769.983	1037.904
770.112	1002.077
770.240	997.721
770.368	994.654
770.496	997.260
770.624	1009.731
770.752	985.596
770.880	997.038
771.008	985.904
771.137	978.962
771.265	977.365
771.393	973.231
771.521	980.346
771.649	984.558
771.777	1012.942
771.905	1018.279
772.033	1014.019
772.162	973.212
772.290	972.587
772.418	979.106
772.546	963.529
772.674	972.596
772.802	954.115
772.930	963.933
773.058	950.990
773.187	951.212
773.315	957.173
773.443	958.394
773.571	951.125
773.699	947.125
773.827	959.798
773.955	970.663
774.083	956.058
774.212	941.385
774.340	942.375
774.468	935.346
774.596	945.452
774.724	948.548
774.852	947.058
774.980	929.471
775.108	932.212
775.237	919.433
775.365	927.837
775.493	934.010
775.621	919.413
775.749	927.740
775.877	931.875
776.005	923.712
776.133	912.433
776.262	925.971
776.390	922.154
776.518	908.192
776.646	914.933
776.774	908.798
776.902	902.260
777.030	904.240
777.158	903.981
777.287	924.481
777.415	902.567
777.543	906.788
777.671	906.154
777.799	908.942
777.927	902.875
778.055	905.135
778.183	885.827
778.312	889.096
778.440	890.750
778.568	904.077
778.696	904.279
778.824	895.558
778.952	902.356
779.080	880.038
779.208	882.981
779.337	880.298
779.465	893.673
779.593	878.760
779.721	878.548
779.849	882.577
779.977	876.163
780.105	871.279
780.233	878.721
780.362	862.519
780.490	863.231
780.618	875.192
780.746	857.240
780.874	856.952
781.002	862.904
781.130	859.471
781.258	850.981
781.387	866.250
781.515	859.019
781.643	844.952
781.771	851.865
781.899	862.558
782.027	849.356
782.155	848.279
782.283	840.798
782.412	851.875
782.540	850.798
782.668	838.587
782.796	834.808
782.924	849.865
783.052	854.923
783.180	843.519
783.308	836.865
783.437	832.981
783.565	834.144
783.693	841.087
783.821	828.356
783.949	830.683
784.077	826.990
784.205	836.365
784.333	822.135
784.462	827.019
784.590	816.375
784.718	810.279
784.846	812.298
784.974	827.404
785.102	810.798
785.230	801.019
785.358	807.067
785.487	805.587
785.615	799.240
785.743	797.308
785.871	809.981
785.999	799.962
786.127	804.404
786.255	796.779
786.383	796.615
786.512	784.375
786.640	793.808
786.768	780.760
786.896	782.144
787.024	772.365
787.152	778.779
787.280	794.192
787.408	782.567
787.537	785.817
787.665	783.856
787.793	762.817
787.921	759.462
788.049	772.058
788.177	763.990
788.305	765.144
788.433	765.356
788.562	758.673
788.690	751.904
788.818	762.221
788.946	754.115
789.074	758.548
789.202	747.019
789.330	740.029
789.458	751.077
789.587	743.971
789.715	748.673
789.843	746.240
789.971	745.135
790.099	737.298
790.227	729.125
790.355	736.558
790.483	736.865
790.612	731.913
790.740	736.760
790.868	724.779
790.996	737.712
791.124	736.798
791.252	726.692
791.380	715.942
791.508	721.240
791.637	721.798
791.765	704.442
791.893	717.202
792.021	719.346
792.149	711.317
792.277	713.308
792.405	695.490
792.533	700.644
792.662	702.567
792.790	701.452
792.918	706.144
793.046	689.481
793.174	700.683
793.302	689.106
793.430	688.240
793.558	698.231
793.687	684.029
793.815	678.683
793.943	698.452
794.071	676.433
794.199	674.875
794.327	669.750
794.455	689.327
794.583	672.288
794.712	678.317
794.840	669.154
794.968	670.913
795.096	673.942
795.224	651.269
795.352	704.144
795.480	651.692
795.608	655.240
795.737	645.115
795.865	646.577
795.993	647.481
796.121	637.346
796.249	635.817
796.377	644.760
796.505	644.202
796.633	647.317
796.762	624.538
796.890	627.529
797.018	634.692
797.146	635.913
797.274	632.952
797.402	627.500
797.530	614.731
797.658	616.221
797.787	633.375
797.915	626.971
798.043	608.692
798.171	627.462
798.299	600.779
798.427	617.923
798.555	613.846
798.683	603.837
798.812	633.000
798.940	643.952
799.068	632.567
799.196	606.798
799.324	607.587
799.452	590.904
799.580	599.327
799.708	581.942
799.837	589.635
799.965	575.067
800.093	583.606
800.221	579.385
800.349	578.990
800.477	574.202
800.605	571.231
800.733	583.231
800.862	569.433
800.990	566.115
801.118	563.212
801.246	568.731
801.374	570.990
801.502	557.933
801.630	560.279
801.758	557.106
801.887	553.913
802.015	556.740
802.143	544.779
802.271	548.923
802.399	539.769
802.527	540.202
802.655	540.885
802.783	544.096
802.912	535.413
803.040	532.587
803.168	534.317
803.296	543.808
803.424	526.375
803.552	531.356
803.680	537.173
803.808	529.971
803.937	527.029
804.065	519.519
804.193	527.279
804.321	541.721
804.449	537.615
804.577	526.692
804.705	534.471
804.833	513.471
804.962	507.385
805.090	510.019
805.218	507.913
805.346	506.875
805.474	514.154
805.602	507.394
805.730	513.817
805.858	498.885
805.987	498.558
806.115	506.356
806.243	500.654
806.371	493.683
806.499	499.125
806.627	490.808
806.755	496.933
806.883	495.837
807.012	489.144
807.140	492.240
807.268	476.423
807.396	480.606
807.524	482.173
807.652	491.750
807.780	479.240
807.908	475.808
808.037	487.721
808.165	483.827
808.293	466.019
808.421	466.558
808.549	468.692
808.677	470.019
808.805	481.798
808.933	469.298
809.062	462.462
809.190	473.144
809.318	465.077
809.446	452.567
809.574	467.942
809.702	452.010
809.830	450.375
809.958	464.683
810.087	453.808
810.215	446.365
810.343	460.260
810.471	451.519
810.599	447.365
810.727	447.010
810.855	446.683
810.983	447.712
811.112	449.692
811.240	447.115
811.368	451.269
811.496	460.250
811.624	447.971
811.752	449.760
811.880	466.067
812.008	457.173
812.137	458.442
812.265	444.817
812.393	450.913
812.521	437.990
812.649	444.019
812.777	434.817
812.905	447.683
813.033	449.500
813.162	436.952
813.290	437.221
813.418	440.096
813.546	440.000
813.674	429.933
813.802	429.346
813.930	428.635
814.058	423.615
814.187	430.510
814.315	423.077
814.443	423.952
814.571	430.673
814.699	416.510
814.827	417.212
814.955	422.077
815.083	415.413
815.212	412.760
815.340	404.635
815.468	410.971
815.596	404.087
815.724	401.385
815.852	397.683
815.980	397.490
816.108	396.962
816.237	393.587
816.365	402.885
816.493	388.519
816.621	397.462
816.749	375.615
816.877	448.750
817.005	398.433
817.133	383.808
817.262	380.894
817.390	375.673
817.518	389.269
817.646	369.500
817.774	368.298
817.902	365.721
818.030	366.490
818.158	380.096
818.287	369.471
818.415	368.788
818.543	362.490
818.671	365.048
818.799	360.740
818.927	356.308
819.055	380.404
819.183	368.298
819.312	377.683
819.440	355.423
819.568	352.712
819.696	355.010
819.824	358.596
819.952	354.971
820.080	355.337
820.208	350.115
820.337	353.904
820.465	350.096
820.593	346.865
820.721	350.250
820.849	346.529
820.977	346.817
821.105	344.365
821.233	334.942
821.362	350.404
821.490	336.538
821.618	347.077
821.746	346.942
821.874	339.702
822.002	331.798
822.130	333.798
822.258	337.990
822.387	335.894
822.515	343.740
822.643	328.837
822.771	328.817
822.899	335.000
823.027	326.933
823.155	330.683
823.283	340.404
823.412	334.904
823.540	319.644
823.668	320.577
823.796	322.846
823.924	317.904
824.052	321.769
824.180	323.654
824.308	323.413
824.437	324.260
824.565	322.154
824.693	309.846
824.821	310.837
824.949	317.962
825.077	308.394
825.205	305.519
825.333	310.692
825.462	313.327
825.590	301.808
825.718	304.663
825.846	309.548
825.974	303.058
826.102	303.192
826.230	304.317
826.358	309.135
826.487	302.481
826.615	299.702
826.743	295.846
826.871	311.317
826.999	297.442
827.127	306.462
827.255	298.394
827.383	297.885
827.512	292.692
827.640	300.481
827.768	318.000
827.896	290.712
828.024	298.192
828.152	290.154
828.280	297.519
828.408	290.269
828.537	294.279
828.665	289.644
828.793	293.788
828.921	288.817
829.049	289.779
829.177	289.942
829.305	284.192
829.433	287.433
829.562	283.298
829.690	282.577
829.818	288.221
829.946	279.212
830.074	279.673
830.202	279.442
830.330	289.894
830.458	272.596
830.587	286.173
830.715	281.144
830.843	272.673
830.971	282.519
831.099	283.192
831.227	307.125
831.355	271.635
831.483	274.731
831.612	278.606
831.740	272.596
831.868	274.490
831.996	282.942
832.124	277.548
832.252	280.010
832.380	271.115
832.508	269.346
832.637	271.971
832.765	275.721
832.893	271.837
833.021	265.894
833.149	261.413
833.277	265.298
833.405	270.971
833.533	261.798
833.662	267.260
833.790	259.654
833.918	267.471
834.046	264.010
834.174	259.240
834.302	265.952
834.430	254.519
834.558	259.327
834.687	259.904
834.815	261.615
834.943	254.827
835.071	258.885
835.199	253.154
835.327	254.115
835.455	260.817
835.583	252.346
835.712	251.231
835.840	259.769
835.968	249.442
836.096	257.337
836.224	250.019
836.352	253.106
836.480	247.885
836.608	241.837
836.737	249.038
836.865	242.500
836.993	254.827
837.121	254.327
837.249	252.077
837.377	239.192
837.505	237.894
837.633	240.712
837.762	244.865
837.890	243.471
838.018	240.635
838.146	237.442
838.274	242.144
838.402	235.760
838.530	250.202
838.658	242.087
838.787	243.606
838.915	229.125
839.043	245.327
839.171	232.837
839.299	240.115
839.427	256.365
839.555	243.856
839.683	228.894
839.812	239.125
839.940	231.308
840.068	232.606
840.196	259.462
840.324	246.212
840.452	239.433
840.580	232.721
840.708	220.750
840.837	229.471
840.965	228.529
841.093	227.048
841.221	229.115
841.349	226.077
841.477	222.106
841.605	223.760
841.733	227.337
841.862	235.077
841.990	223.596
842.118	218.712
842.246	225.712
842.374	218.365
842.502	231.913
842.630	220.904
842.758	215.567
842.887	227.087
843.015	234.721
843.143	217.250
843.271	222.894
843.399	220.654
843.527	218.750
843.655	219.250
843.783	213.471
843.912	215.692
844.040	213.288
844.168	218.567
844.296	227.827
844.424	223.587
844.552	219.923
844.680	220.404
844.808	212.587
844.937	212.750
845.065	211.135
845.193	227.865
845.321	219.317
845.449	221.808
845.577	219.567
845.705	212.106
845.833	206.760
845.962	217.269
846.090	211.365
846.218	222.904
846.346	218.481
846.474	214.779
846.602	204.817
846.730	211.077
846.858	209.077
846.987	204.933
847.115	212.577
847.243	219.394
847.371	201.615
847.499	207.721
847.627	211.048
847.755	204.981
847.883	211.683
848.012	214.067
848.140	198.904
848.268	199.875
848.396	203.731
848.524	212.942
848.652	201.365
848.780	196.865
848.908	202.779
849.037	207.019
849.165	199.048
849.293	207.933
849.421	203.442
849.549	202.952
849.677	201.135
849.805	209.990
849.933	198.010
850.062	209.413
850.190	199.500
850.318	196.942
850.446	204.904
850.574	199.471
850.702	198.952
850.830	192.644
850.958	197.788
851.087	203.327
851.215	195.990
851.343	199.452
851.471	196.519
851.599	206.058
851.727	207.750
851.855	197.048
851.983	204.077
852.112	195.885
852.240	202.067
852.368	205.942
852.496	194.519
852.624	199.933
852.752	207.635
852.880	196.163
853.008	201.865
853.137	196.096
853.265	196.385
853.393	195.923
853.521	188.404
853.649	197.692
853.777	188.683
853.905	191.048
854.033	189.529
854.162	190.029
854.290	187.067
854.418	206.471
854.546	220.519
854.674	207.865
854.802	195.231
854.930	190.048
855.058	198.221
855.187	185.471
855.315	215.577
855.443	189.183
855.571	190.750
855.699	202.000
855.827	183.462
855.955	184.279
856.083	188.317
856.212	189.865
856.340	193.798
856.468	193.452
856.596	188.885
856.724	193.173
856.852	199.471
856.980	180.510
857.108	178.625
857.237	180.221
857.365	192.135
857.493	189.856
857.621	187.558
857.749	181.654
857.877	183.827
858.005	179.231
858.133	187.837
858.262	181.952
858.390	179.663
858.518	179.029
858.646	190.365
858.774	182.942
858.902	182.423
859.030	185.654
859.158	188.394
859.287	184.423
859.415	185.779
859.543	181.971
859.671	184.952
859.799	193.173
859.927	178.423
860.055	174.846
860.183	175.365
860.312	176.452
860.440	181.865
860.568	170.048
860.696	188.538
860.824	192.471
860.952	173.356
861.080	178.625
861.208	182.058
861.337	176.385
861.465	188.337
861.593	181.202
861.721	185.250
861.849	183.269
861.977	178.125
862.105	181.346
862.233	177.048
862.362	177.240
862.490	177.308
862.618	179.356
862.746	180.625
862.874	183.413
863.002	180.894
863.130	182.538
863.258	181.615
863.387	183.317
863.515	177.712
863.643	186.404
863.771	178.962
863.899	180.144
864.027	178.904
864.155	201.808
864.283	176.394
864.412	173.327
864.540	177.288
864.668	168.865
864.796	175.529
864.924	175.538
865.052	168.183
865.180	189.481
865.308	176.635
865.437	175.942
865.565	169.837
865.693	174.654
865.821	172.587
865.949	192.010
866.077	178.587
866.205	173.183
866.333	176.212
866.462	165.048
866.590	176.673
866.718	175.019
866.846	170.462
866.974	174.096
867.102	167.683
867.230	177.067
867.358	172.702
867.487	180.808
867.615	184.538
867.743	168.894
867.871	180.135
867.999	173.202
868.127	181.933
868.255	184.481
868.383	163.962
868.512	173.750
868.640	171.433
868.768	167.337
868.896	181.433
869.024	170.269
869.152	171.000
869.280	168.404
869.408	168.750
869.537	168.750
869.665	164.721
869.793	172.423
869.921	172.298
870.049	164.827
870.177	167.279
870.305	165.971
870.433	168.308
870.562	171.567
870.690	169.346
870.818	176.019
870.946	163.442
871.074	162.260
871.202	165.942
871.330	165.606
871.458	171.577
871.587	168.519
871.715	170.298
871.843	171.000
871.971	174.183
872.099	158.779
872.227	168.875
872.355	167.346
872.483	165.779
872.612	173.885
872.740	167.577
872.868	165.327
872.996	170.731
873.124	179.298
873.252	165.173
873.380	160.048
873.508	175.683
873.637	170.817
873.765	163.365
873.893	167.635
874.021	169.163
874.149	166.096
874.277	166.019
874.405	170.635
874.533	174.288
874.662	165.625
874.790	171.250
874.918	166.212
875.046	170.490
875.174	166.692
875.302	164.048
875.430	162.202
875.558	170.173
875.687	175.087
875.815	169.375
875.943	168.288
876.071	168.058
876.199	169.923
876.327	170.548
876.455	168.250
876.583	163.981
876.712	171.087
876.840	165.788
876.968	163.683
877.096	168.038
877.224	164.625
877.352	161.615
877.480	167.490
877.608	174.183
877.737	167.712
877.865	162.260
877.993	170.471
878.121	169.577
878.249	164.606
878.377	164.673
878.505	166.952
878.633	168.221
878.762	158.115
878.890	163.087
879.018	173.087
879.146	164.942
879.274	191.500
879.402	168.596
879.530	161.635
879.658	163.846
879.787	167.096
879.915	160.010
880.043	160.375
880.171	195.067
880.299	167.635
880.427	170.308
880.555	164.548
880.683	170.529
880.812	169.221
880.940	165.962
881.068	175.048
881.196	166.365
881.324	162.202
881.452	164.702
881.580	170.308
881.708	174.625
881.837	169.942
881.965	171.125
882.093	158.798
882.221	165.221
882.349	162.808
882.477	166.673
882.605	170.731
882.733	169.875
882.862	163.010
882.990	175.990
883.118	171.077
883.246	174.029
883.374	169.808
883.502	176.337
883.630	173.317
883.758	165.577
883.887	169.538
884.015	169.125
884.143	173.865
884.271	166.875
884.399	163.202
884.527	170.606
884.655	166.548
884.783	166.558
884.912	189.077
885.040	174.298
885.168	163.962
885.296	172.673
885.424	163.808
885.552	164.269
885.680	178.933
885.808	168.452
885.937	174.510
886.065	171.500
886.193	163.788
886.321	165.577
886.449	160.548
886.577	161.750
886.705	173.644
886.833	152.856
886.962	166.587
887.090	163.721
887.218	158.760
887.346	160.635
887.474	158.452
887.602	159.163
887.730	154.952
887.858	158.817
887.987	160.144
888.115	165.606
888.243	162.087
888.371	176.212
888.499	164.202
888.627	160.192
888.755	169.683
888.883	160.731
889.012	163.615
889.140	162.885
889.268	165.923
889.396	155.644
889.524	170.163
889.652	153.673
889.780	158.894
889.908	160.798
890.037	170.567
890.165	158.231
890.293	164.260
890.421	163.471
890.549	154.365
890.677	152.856
890.805	162.010
890.933	158.433
891.062	162.019
891.190	162.635
891.318	155.067
891.446	158.885
891.574	152.606
891.702	157.981
891.830	164.183
891.958	170.981
892.087	165.481
892.215	162.923
892.343	167.173
892.471	166.635
892.599	154.952
892.727	162.154
892.855	179.692
892.983	152.788
893.112	159.115
893.240	169.212
893.368	158.731
893.496	169.865
893.624	168.173
893.752	181.942
893.880	164.894
894.008	161.462
894.137	156.913
894.265	166.356
894.393	159.952
894.521	166.365
894.649	161.654
894.777	153.000
894.905	197.375
895.033	159.481
895.162	159.779
895.290	167.462
895.418	162.769
895.546	196.471
895.674	167.173
895.802	199.404
895.930	164.981
896.058	159.615
896.187	161.654
896.315	156.971
896.443	168.221
896.571	185.942
896.699	162.817
896.827	165.385
896.955	163.442
897.083	165.538
897.212	165.183
897.340	159.808
897.468	161.519
897.596	160.096
897.724	161.067
897.852	160.240
897.980	159.231
898.108	169.923
898.237	163.519
898.365	162.115
898.493	168.692
898.621	163.846
898.749	163.779
898.877	164.673
899.005	158.750
899.133	164.779
899.262	179.029
899.390	165.154
899.518	167.135
899.646	163.298
899.774	159.356
899.902	159.635
900.030	171.087
900.158	162.798
900.287	167.269
900.415	158.837
900.543	166.615
900.671	169.923
900.799	161.519
900.927	159.279
901.055	173.452
901.183	171.740
901.312	170.163
901.440	157.067
901.568	157.269
901.696	161.865
901.824	159.058
901.952	154.663
902.080	162.106
902.208	162.490
902.337	169.606
902.465	157.000
902.593	175.288
902.721	181.183
902.849	183.317
902.977	165.337
903.105	162.942
903.233	164.000
903.362	153.356
903.490	169.115
903.618	161.365
903.746	155.865
903.874	162.615
904.002	159.519
904.130	173.519
904.258	153.577
904.387	166.837
904.515	154.433
904.643	162.385
904.771	158.192
904.899	158.346
905.027	164.490
905.155	160.115
905.283	155.385
905.412	174.462
905.540	161.856
905.668	160.644
905.796	161.058
905.924	162.337
906.052	162.365
906.180	163.413
906.308	154.615
906.437	158.202
906.565	162.913
906.693	169.962
906.821	157.413
906.949	159.740
907.077	153.442
907.205	166.038
907.333	151.827
907.462	157.481
907.590	159.702
907.718	159.385
907.846	167.798
907.974	156.817
908.102	160.202
908.230	165.019
908.358	161.558
908.487	153.375
908.615	169.462
908.743	167.702
908.871	161.913
908.999	155.231
909.127	161.356
909.255	174.000
909.383	155.317
909.512	156.269
909.640	170.298
909.768	159.404
909.896	168.096
910.024	168.404
910.152	169.317
910.280	170.375
910.408	156.192
910.537	161.865
910.665	166.654
910.793	165.769
910.921	169.500
911.049	171.683
911.177	171.933
911.305	162.567
911.433	186.481
911.562	166.615
911.690	165.683
911.818	162.337
911.946	161.750
912.074	164.875
912.202	161.683
912.330	180.058
912.458	158.663
912.587	166.490
912.715	167.942
912.843	179.731
912.971	167.221
913.099	180.087
913.227	173.779
913.355	170.356
913.483	177.183
913.612	174.538
913.740	196.452
913.868	171.048
