sample8u_at_750.00nm_cut_at_1060.50Y_01.dat
19.06.2023
11:11:32
cut middle at Y: 1060.50
top cursor: 1109 down cursor: 1012 mean of: 97 lines , 2560 datapoints
wavelength(nm)	intensity[arb. units]
585.996	2132.887
586.124	2066.041
586.252	2047.340
586.380	2054.258
586.508	2045.340
586.637	2067.433
586.765	2062.979
586.893	2067.753
587.021	2086.649
587.149	2084.598
587.277	2089.969
587.405	2099.948
587.533	2079.000
587.662	2093.526
587.790	2108.186
587.918	2100.887
588.046	2106.340
588.174	2099.598
588.302	2108.536
588.430	2095.784
588.558	2119.216
588.687	2130.454
588.815	2139.763
588.943	2130.186
589.071	2121.237
589.199	2128.794
589.327	2118.897
589.455	2129.268
589.583	2130.897
589.712	2128.680
589.840	2144.711
589.968	2134.062
590.096	2142.443
590.224	2147.567
590.352	2146.959
590.480	2154.598
590.608	2154.928
590.737	2127.845
590.865	2135.649
590.993	2153.546
591.121	2148.206
591.249	2153.979
591.377	2154.784
591.505	2156.546
591.633	2159.660
591.762	2177.722
591.890	2176.206
592.018	2174.392
592.146	2186.557
592.274	2189.887
592.402	2169.113
592.530	2163.701
592.658	2169.340
592.787	2194.412
592.915	2191.423
593.043	2196.680
593.171	2191.515
593.299	2218.247
593.427	2195.000
593.555	2225.505
593.683	2206.969
593.812	2216.608
593.940	2234.278
594.068	2230.660
594.196	2242.557
594.324	2237.330
594.452	2273.330
594.580	2250.680
594.708	2260.639
594.837	2266.948
594.965	2286.134
595.093	2274.464
595.221	2288.082
595.349	2291.629
595.477	2279.485
595.605	2297.959
595.733	2322.175
595.862	2322.536
595.990	2312.402
596.118	2319.237
596.246	2339.608
596.374	2314.526
596.502	2341.124
596.630	2352.629
596.758	2339.186
596.887	2359.289
597.015	2355.546
597.143	2326.340
597.271	2346.959
597.399	2366.361
597.527	2361.371
597.655	2372.041
597.783	2351.763
597.912	2360.928
598.040	2365.454
598.168	2373.052
598.296	2366.021
598.424	2361.835
598.552	2365.464
598.680	2345.258
598.808	2385.206
598.937	2373.371
599.065	2367.536
599.193	2370.144
599.321	2369.227
599.449	2382.330
599.577	2367.598
599.705	2374.144
599.833	2363.052
599.962	2365.175
600.090	2382.701
600.218	2368.773
600.346	2391.041
600.474	2377.990
600.602	2373.835
600.730	2370.680
600.858	2394.103
600.987	2375.742
601.115	2364.103
601.243	2380.052
601.371	2401.227
601.499	2399.959
601.627	2401.041
601.755	2405.186
601.883	2412.990
602.012	2425.093
602.140	2410.237
602.268	2449.866
602.396	2427.856
602.524	2434.082
602.652	2450.021
602.780	2460.969
602.908	2458.948
603.037	2501.732
603.165	2474.052
603.293	2484.546
603.421	2505.392
603.549	2483.887
603.677	2529.165
603.805	2505.897
603.933	2524.072
604.062	2564.546
604.190	2551.598
604.318	2533.619
604.446	2555.258
604.574	2571.371
604.702	2579.515
604.830	2578.680
604.958	2602.588
605.087	2609.258
605.215	2617.041
605.343	2605.464
605.471	2642.258
605.599	2617.907
605.727	2614.402
605.855	2646.206
605.983	2647.485
606.112	2634.969
606.240	2645.887
606.368	2664.639
606.496	2769.639
606.624	2641.814
606.752	2685.175
606.880	2779.649
607.008	2813.784
607.137	2797.546
607.265	2668.536
607.393	2706.835
607.521	2771.072
607.649	2675.237
607.777	2704.763
607.905	2736.402
608.033	2741.649
608.162	2696.577
608.290	2751.299
608.418	2719.619
608.546	2743.536
608.674	2747.443
608.802	2698.041
608.930	2707.412
609.058	2718.371
609.187	2741.804
609.315	2732.887
609.443	2688.113
609.571	2777.691
609.699	2688.330
609.827	2712.031
609.955	2759.031
610.083	2688.062
610.212	2698.041
610.340	2701.381
610.468	2771.144
610.596	2743.938
610.724	2745.670
610.852	2722.845
610.980	2735.134
611.108	2781.701
611.237	2702.732
611.365	2727.639
611.493	2723.536
611.621	2733.175
611.749	2735.320
611.877	2743.753
612.005	2754.691
612.133	2761.072
612.262	2749.598
612.390	2766.454
612.518	2794.423
612.646	2850.010
612.774	2769.134
612.902	2777.990
613.030	2765.546
613.158	2861.866
613.287	2818.082
613.415	2774.619
613.543	2811.237
613.671	2825.113
613.799	2821.887
613.927	2867.186
614.055	2819.526
614.183	2941.433
614.312	2815.381
614.440	2959.546
614.568	2863.237
614.696	2844.928
614.824	2990.897
614.952	2907.505
615.080	2863.598
615.208	2925.454
615.337	2953.887
615.465	2895.144
615.593	2924.072
615.721	2966.124
615.849	2980.670
615.977	2950.680
616.105	2987.299
616.233	2937.773
616.362	3010.278
616.490	2927.732
616.618	2928.433
616.746	3010.041
616.874	3021.062
617.002	2986.928
617.130	3014.454
617.258	3062.485
617.387	2985.103
617.515	2970.577
617.643	2983.134
617.771	3055.082
617.899	3004.103
618.027	2975.433
618.155	3080.000
618.283	2982.680
618.412	3021.938
618.540	3095.577
618.668	3043.206
618.796	3032.711
618.924	3094.680
619.052	3019.649
619.180	3007.268
619.308	3030.320
619.437	3054.454
619.565	3046.918
619.693	3041.680
619.821	3061.433
619.949	3031.515
620.077	3070.052
620.205	3081.711
620.333	3079.866
620.462	3092.649
620.590	3102.144
620.718	3052.742
620.846	3130.526
620.974	3108.474
621.102	3112.557
621.230	3056.639
621.358	3188.268
621.487	3062.577
621.615	3098.412
621.743	3077.794
621.871	3114.577
621.999	3114.691
622.127	3100.299
622.255	3083.763
622.383	3086.845
622.512	3075.804
622.640	3221.474
622.768	3058.959
622.896	3132.175
623.024	3096.124
623.152	3143.186
623.280	3165.928
623.408	3053.371
623.537	3100.773
623.665	3051.588
623.793	3142.959
623.921	3096.866
624.049	3065.423
624.177	3098.464
624.305	3112.433
624.433	3124.619
624.562	3097.588
624.690	3169.763
624.818	3126.546
624.946	3232.361
625.074	3117.557
625.202	3066.278
625.330	3075.247
625.458	3163.155
625.587	3081.701
625.715	3164.784
625.843	3214.907
625.971	3103.175
626.099	3115.742
626.227	3127.814
626.355	3115.072
626.483	3210.825
626.612	3108.959
626.740	3083.969
626.868	3136.505
626.996	3143.134
627.124	3092.732
627.252	3082.536
627.380	3128.660
627.508	3103.959
627.637	3146.021
627.765	3127.722
627.893	3106.979
628.021	3147.381
628.149	3119.278
628.277	3181.948
628.405	3180.990
628.533	3115.247
628.662	3198.082
628.790	3168.856
628.918	3150.856
629.046	3195.845
629.174	3146.515
629.302	3229.814
629.430	3123.299
629.558	3183.557
629.687	3156.216
629.815	3180.392
629.943	3228.093
630.071	3221.660
630.199	3211.784
630.327	3184.567
630.455	3177.268
630.583	3240.619
630.712	3233.959
630.840	3207.402
630.968	3228.289
631.096	3176.804
631.224	3206.649
631.352	3255.835
631.480	3246.062
631.608	3276.155
631.737	3280.485
631.865	3407.629
631.993	3245.711
632.121	3358.165
632.249	3296.062
632.377	3277.495
632.505	3272.485
632.633	3208.546
632.762	3249.608
632.890	3307.825
633.018	3242.041
633.146	3253.433
633.274	3247.216
633.402	3269.505
633.530	3210.588
633.658	3322.412
633.787	3207.330
633.915	3272.711
634.043	3222.938
634.171	3221.897
634.299	3254.196
634.427	3294.938
634.555	3326.784
634.683	3253.619
634.812	3210.227
634.940	3241.093
635.068	3182.155
635.196	3228.835
635.324	3198.124
635.452	3255.196
635.580	3213.722
635.708	3196.835
635.837	3235.866
635.965	3216.268
636.093	3192.814
636.221	3172.361
636.349	3218.649
636.477	3158.495
636.605	3274.351
636.733	3125.701
636.862	3135.711
636.990	3170.412
637.118	3223.680
637.246	3160.701
637.374	3174.227
637.502	3112.103
637.630	3088.608
637.758	3125.784
637.887	3067.732
638.015	3150.845
638.143	3092.722
638.271	3118.866
638.399	3099.825
638.527	3071.742
638.655	3074.876
638.783	3173.701
638.912	3132.196
639.040	3091.227
639.168	3113.784
639.296	3047.742
639.424	3176.072
639.552	3057.031
639.680	3066.485
639.808	3084.340
639.937	3044.505
640.065	3045.979
640.193	3109.649
640.321	3050.794
640.449	3087.938
640.577	3099.474
640.705	3049.423
640.833	3138.670
640.962	3069.320
641.090	2996.680
641.218	3024.392
641.346	3052.907
641.474	3062.433
641.602	3024.825
641.730	3014.639
641.858	3018.505
641.987	3052.938
642.115	3063.680
642.243	3056.062
642.371	3076.639
642.499	3050.371
642.627	3063.608
642.755	3061.165
642.883	3068.948
643.012	3048.938
643.140	3014.278
643.268	3035.897
643.396	3020.835
643.524	3136.381
643.652	3063.928
643.780	3023.464
643.908	3012.649
644.037	3152.247
644.165	3039.309
644.293	3081.113
644.421	3022.165
644.549	3103.557
644.677	3040.443
644.805	3075.454
644.933	3014.794
645.062	3042.546
645.190	3075.082
645.318	3117.722
645.446	3051.495
645.574	3033.866
645.702	3046.907
645.830	3139.959
645.958	2999.794
646.087	3160.258
646.215	3009.412
646.343	3133.753
646.471	3113.402
646.599	3069.887
646.727	3007.186
646.855	3005.433
646.983	3044.526
647.112	3006.825
647.240	3107.691
647.368	3013.412
647.496	3019.825
647.624	2958.711
647.752	2956.485
647.880	2963.835
648.008	2965.351
648.137	2942.979
648.265	2942.340
648.393	2988.309
648.521	2955.082
648.649	2985.608
648.777	2962.433
648.905	2931.454
649.033	2968.990
649.162	2934.608
649.290	2912.237
649.418	2943.505
649.546	2977.526
649.674	2940.412
649.802	2907.351
649.930	3005.784
650.058	2860.124
650.187	2883.938
650.315	2848.722
650.443	2911.381
650.571	2862.546
650.699	2841.753
650.827	2812.804
650.955	2848.165
651.083	2857.557
651.212	2883.175
651.340	2890.567
651.468	2832.010
651.596	2834.010
651.724	2835.474
651.852	2802.639
651.980	2805.546
652.108	2870.887
652.237	2819.907
652.365	2865.948
652.493	2779.485
652.621	2775.082
652.749	2819.918
652.877	2753.309
653.005	2792.464
653.133	2751.330
653.262	2769.454
653.390	2724.216
653.518	2827.443
653.646	2746.082
653.774	2842.918
653.902	2756.938
654.030	2723.392
654.158	2716.639
654.287	2708.247
654.415	2734.928
654.543	2703.216
654.671	2738.474
654.799	2697.330
654.927	2670.361
655.055	2668.814
655.183	2679.186
655.312	2672.773
655.440	2679.959
655.568	2649.186
655.696	2714.979
655.824	2720.804
655.952	2644.515
656.080	2614.969
656.208	2745.639
656.337	2633.773
656.465	2644.918
656.593	2670.835
656.721	2631.062
656.849	2648.680
656.977	2601.165
657.105	2597.794
657.233	2577.412
657.362	2579.381
657.490	2580.536
657.618	2579.072
657.746	2582.082
657.874	2546.320
658.002	2528.897
658.130	2565.969
658.258	2532.093
658.387	2539.773
658.515	2519.969
658.643	2539.247
658.771	2523.691
658.899	2509.948
659.027	2500.814
659.155	2502.289
659.283	2561.227
659.412	2484.526
659.540	2527.918
659.668	2461.216
659.796	2481.155
659.924	2507.072
660.052	2469.784
660.180	2444.134
660.308	2456.433
660.437	2447.928
660.565	2429.938
660.693	2443.062
660.821	2421.433
660.949	2439.629
661.077	2415.340
661.205	2411.753
661.333	2416.371
661.462	2441.340
661.590	2417.351
661.718	2421.515
661.846	2397.320
661.974	2408.113
662.102	2384.144
662.230	2397.052
662.358	2383.093
662.487	2382.165
662.615	2367.495
662.743	2378.938
662.871	2360.773
662.999	2362.536
663.127	2352.722
663.255	2347.124
663.383	2360.320
663.512	2344.897
663.640	2347.918
663.768	2334.979
663.896	2320.268
664.024	2323.680
664.152	2320.495
664.280	2312.165
664.408	2308.423
664.537	2312.031
664.665	2319.814
664.793	2290.742
664.921	2294.526
665.049	2298.258
665.177	2313.062
665.305	2295.237
665.433	2293.948
665.562	2288.237
665.690	2283.144
665.818	2276.330
665.946	2284.588
666.074	2277.299
666.202	2270.072
666.330	2250.567
666.458	2257.052
666.587	2241.031
666.715	2261.866
666.843	2241.052
666.971	2246.000
667.099	2246.753
667.227	2253.990
667.355	2240.845
667.483	2222.825
667.612	2229.753
667.740	2221.258
667.868	2221.237
667.996	2209.649
668.124	2212.515
668.252	2222.433
668.380	2191.031
668.508	2202.268
668.637	2186.062
668.765	2193.784
668.893	2185.443
669.021	2179.876
669.149	2166.505
669.277	2164.062
669.405	2164.010
669.533	2164.041
669.662	2160.175
669.790	2151.175
669.918	2141.887
670.046	2135.979
670.174	2126.330
670.302	2139.423
670.430	2103.361
670.558	2105.237
670.687	2099.412
670.815	2111.670
670.943	2109.825
671.071	2091.412
671.199	2080.526
671.327	2073.619
671.455	2072.062
671.583	2077.258
671.712	2042.897
671.840	2052.876
671.968	2037.103
672.096	2025.732
672.224	2030.639
672.352	2012.969
672.480	2037.608
672.608	2019.361
672.737	2015.876
672.865	2000.113
672.993	2003.680
673.121	2003.526
673.249	1979.474
673.377	1966.887
673.505	1964.495
673.633	1941.814
673.762	1944.258
673.890	1963.474
674.018	1937.918
674.146	1930.701
674.274	1937.639
674.402	1919.206
674.530	1909.619
674.658	1904.536
674.787	1887.237
674.915	1882.206
675.043	1878.258
675.171	1875.784
675.299	1879.598
675.427	1862.753
675.555	1862.897
675.683	1852.557
675.812	1825.660
675.940	1828.134
676.068	1825.588
676.196	1808.021
676.324	1829.443
676.452	1812.392
676.580	1807.412
676.708	1791.990
676.837	1810.144
676.965	1782.773
677.093	1790.237
677.221	1785.031
677.349	1760.412
677.477	1761.990
677.605	1747.134
677.733	1752.381
677.862	1744.629
677.990	1744.165
678.118	1736.742
678.246	1712.041
678.374	1707.742
678.502	1722.186
678.630	1679.062
678.758	1695.505
678.887	1695.052
679.015	1687.918
679.143	1676.268
679.271	1679.608
679.399	1675.938
679.527	1659.309
679.655	1664.103
679.783	1661.639
679.912	1638.031
680.040	1649.608
680.168	1644.278
680.296	1622.124
680.424	1645.454
680.552	1624.629
680.680	1624.093
680.808	1603.948
680.937	1607.021
681.065	1607.010
681.193	1596.423
681.321	1594.062
681.449	1590.619
681.577	1592.639
681.705	1565.649
681.833	1582.742
681.962	1578.948
682.090	1578.763
682.218	1570.804
682.346	1575.361
682.474	1562.557
682.602	1576.680
682.730	1557.021
682.858	1549.052
682.987	1559.134
683.115	1536.464
683.243	1537.196
683.371	1537.557
683.499	1512.598
683.627	1541.907
683.755	1512.959
683.883	1518.289
684.012	1509.887
684.140	1501.258
684.268	1513.979
684.396	1507.041
684.524	1502.144
684.652	1499.258
684.780	1504.041
684.908	1492.969
685.037	1492.577
685.165	1488.000
685.293	1477.485
685.421	1480.155
685.549	1473.887
685.677	1468.103
685.805	1461.485
685.933	1472.258
686.062	1464.000
686.190	1466.206
686.318	1459.155
686.446	1457.938
686.574	1451.010
686.702	1458.990
686.830	1445.567
686.958	1445.567
687.087	1432.000
687.215	1422.649
687.343	1435.577
687.471	1432.990
687.599	1426.330
687.727	1413.330
687.855	1415.546
687.983	1416.557
688.112	1413.536
688.240	1394.495
688.368	1406.897
688.496	1398.598
688.624	1394.887
688.752	1390.155
688.880	1385.041
689.008	1374.495
689.137	1388.557
689.265	1372.402
689.393	1359.227
689.521	1364.206
689.649	1361.505
689.777	1365.155
689.905	1355.423
690.033	1356.598
690.162	1347.351
690.290	1334.134
690.418	1338.639
690.546	1330.072
690.674	1336.082
690.802	1329.021
690.930	1323.289
691.058	1309.526
691.187	1306.794
691.315	1309.825
691.443	1300.186
691.571	1288.794
691.699	1299.392
691.827	1289.835
691.955	1281.969
692.083	1271.907
692.212	1271.505
692.340	1280.134
692.468	1261.701
692.596	1259.701
692.724	1263.371
692.852	1254.124
692.980	1249.804
693.108	1242.103
693.237	1240.907
693.365	1236.753
693.493	1229.907
693.621	1222.969
693.749	1229.289
693.877	1212.237
694.005	1208.887
694.133	1215.515
694.262	1205.639
694.390	1208.536
694.518	1191.124
694.646	1187.897
694.774	1198.722
694.902	1173.722
695.030	1196.289
695.158	1167.825
695.287	1176.320
695.415	1169.309
695.543	1167.742
695.671	1160.567
695.799	1150.423
695.927	1141.753
696.055	1150.732
696.183	1161.897
696.312	1153.691
696.440	1144.784
696.568	1141.495
696.696	1114.588
696.824	1117.082
696.952	1117.000
697.080	1112.165
697.208	1119.392
697.337	1098.866
697.465	1106.887
697.593	1106.918
697.721	1100.093
697.849	1105.072
697.977	1096.093
698.105	1092.990
698.233	1094.938
698.362	1084.619
698.490	1084.186
698.618	1080.536
698.746	1071.124
698.874	1056.835
699.002	1064.959
699.130	1062.546
699.258	1070.763
699.387	1051.134
699.515	1048.680
699.643	1051.536
699.771	1047.206
699.899	1044.381
700.027	1031.515
700.155	1037.330
700.283	1031.979
700.412	1018.402
700.540	1026.330
700.668	1015.082
700.796	1009.371
700.924	1009.876
701.052	995.897
701.180	1000.186
701.308	984.515
701.437	988.711
701.565	986.835
701.693	975.093
701.821	984.670
701.949	968.237
702.077	969.371
702.205	977.278
702.333	965.351
702.462	968.227
702.590	957.155
702.718	956.010
702.846	948.423
702.974	943.505
703.102	935.928
703.230	938.763
703.358	918.186
703.487	918.619
703.615	921.959
703.743	903.567
703.871	906.536
703.999	907.928
704.127	900.670
704.255	896.567
704.383	898.041
704.512	887.113
704.640	889.763
704.768	876.763
704.896	875.856
705.024	876.649
705.152	874.701
705.280	876.608
705.408	857.773
705.537	867.649
705.665	857.134
705.793	851.175
705.921	853.155
706.049	855.959
706.177	831.381
706.305	841.732
706.433	834.784
706.562	828.247
706.690	827.165
706.818	824.206
706.946	823.371
707.074	815.845
707.202	812.175
707.330	809.742
707.458	808.062
707.587	800.804
707.715	807.320
707.843	802.948
707.971	796.031
708.099	790.649
708.227	781.258
708.355	774.887
708.483	783.392
708.612	774.010
708.740	781.835
708.868	762.278
708.996	765.897
709.124	762.691
709.252	758.897
709.380	766.474
709.508	742.866
709.637	752.278
709.765	753.175
709.893	746.340
710.021	744.021
710.149	740.227
710.277	746.773
710.405	739.237
710.533	736.887
710.662	722.639
710.790	735.753
710.918	724.072
711.046	724.206
711.174	726.464
711.302	720.948
711.430	723.402
711.558	724.320
711.687	714.454
711.815	715.134
711.943	711.897
712.071	717.887
712.199	699.711
712.327	700.351
712.455	694.691
712.583	703.237
712.712	703.247
712.840	695.000
712.968	687.289
713.096	689.433
713.224	686.402
713.352	690.928
713.480	686.351
713.608	686.485
713.737	681.165
713.865	670.866
713.993	673.825
714.121	672.072
714.249	670.773
714.377	664.072
714.505	672.804
714.633	660.856
714.762	662.041
714.890	662.856
715.018	657.505
715.146	659.072
715.274	647.876
715.402	653.784
715.530	655.010
715.658	646.711
715.787	650.876
715.915	644.897
716.043	642.773
716.171	648.278
716.299	643.742
716.427	641.577
716.555	635.948
716.683	635.082
716.812	632.526
716.940	632.763
717.068	620.485
717.196	623.268
717.324	616.144
717.452	617.948
717.580	620.639
717.708	611.608
717.837	611.938
717.965	610.268
718.093	610.412
718.221	600.320
718.349	607.948
718.477	607.866
718.605	600.299
718.733	597.660
718.862	591.670
718.990	599.485
719.118	589.608
719.246	588.629
719.374	589.505
719.502	587.670
719.630	586.670
719.758	582.474
719.887	581.330
720.015	586.237
720.143	573.866
720.271	573.371
720.399	572.402
720.527	570.794
720.655	563.897
720.783	562.897
720.912	557.031
721.040	560.371
721.168	557.124
721.296	556.753
721.424	559.082
721.552	553.340
721.680	551.021
721.808	551.093
721.937	546.546
722.065	546.732
722.193	534.392
722.321	541.351
722.449	535.052
722.577	533.866
722.705	532.247
722.833	530.897
722.962	526.763
723.090	523.835
723.218	523.093
723.346	515.062
723.474	516.495
723.602	521.320
723.730	513.000
723.858	516.216
723.987	510.918
724.115	507.495
724.243	506.082
724.371	506.732
724.499	502.660
724.627	504.938
724.755	504.763
724.883	500.876
725.012	495.268
725.140	495.649
725.268	494.588
725.396	483.536
725.524	485.938
725.652	481.392
725.780	485.289
725.908	478.928
726.037	478.701
726.165	476.753
726.293	470.794
726.421	476.082
726.549	468.412
726.677	471.660
726.805	468.351
726.933	469.515
727.062	460.990
727.190	459.680
727.318	464.216
727.446	460.887
727.574	458.722
727.702	457.299
727.830	453.835
727.958	453.165
728.087	454.660
728.215	446.577
728.343	451.711
728.471	447.175
728.599	442.278
728.727	443.856
728.855	443.392
728.983	439.794
729.112	439.289
729.240	441.928
729.368	436.443
729.496	442.773
729.624	434.258
729.752	429.062
729.880	428.577
730.008	432.206
730.137	427.485
730.265	428.794
730.393	423.680
730.521	422.371
730.649	418.299
730.777	424.794
730.905	417.278
731.033	417.000
731.162	417.021
731.290	414.608
731.418	410.443
731.546	405.794
731.674	409.835
731.802	411.093
731.930	410.113
732.058	406.753
732.187	410.897
732.315	408.763
732.443	405.557
732.571	402.557
732.699	401.536
732.827	400.495
732.955	404.814
733.083	400.216
733.212	395.443
733.340	394.907
733.468	399.206
733.596	394.000
733.724	388.515
733.852	392.309
733.980	388.577
734.108	396.000
734.237	390.979
734.365	386.340
734.493	383.113
734.621	386.546
734.749	383.485
734.877	379.948
735.005	380.474
735.133	380.866
735.262	382.454
735.390	377.247
735.518	373.825
735.646	371.258
735.774	377.134
735.902	379.062
736.030	378.722
736.158	371.639
736.287	370.701
736.415	370.948
736.543	371.268
736.671	365.443
736.799	366.948
736.927	367.227
737.055	364.639
737.183	369.381
737.312	361.278
737.440	360.546
737.568	361.588
737.696	366.186
737.824	361.309
737.952	360.773
738.080	360.794
738.208	359.113
738.337	355.371
738.465	355.928
738.593	353.340
738.721	347.907
738.849	353.722
738.977	349.887
739.105	349.278
739.233	345.485
739.362	345.041
739.490	346.588
739.618	344.536
739.746	348.021
739.874	342.536
740.002	344.897
740.130	339.495
740.258	342.268
740.387	343.144
740.515	341.928
740.643	344.856
740.771	338.598
740.899	329.887
741.027	331.619
741.155	337.186
741.283	330.041
741.412	336.866
741.540	330.495
741.668	336.093
741.796	328.031
741.924	330.639
742.052	325.072
742.180	321.649
742.308	325.289
742.437	323.979
742.565	323.680
742.693	324.227
742.821	321.309
742.949	320.588
743.077	321.649
743.205	318.897
743.333	314.876
743.462	316.113
743.590	318.010
743.718	316.660
743.846	313.505
743.974	318.557
744.102	312.979
744.230	317.969
744.358	312.753
744.487	313.113
744.615	306.381
744.743	308.309
744.871	305.423
744.999	301.948
745.127	308.433
745.255	306.000
745.383	302.124
745.512	301.443
745.640	301.454
745.768	302.216
745.896	297.979
746.024	299.732
746.152	296.557
746.280	295.433
746.408	295.412
746.537	294.144
746.665	299.278
746.793	294.206
746.921	296.031
747.049	295.082
747.177	291.412
747.305	290.722
747.433	289.320
747.562	291.062
747.690	284.670
747.818	284.887
747.946	287.619
748.074	289.052
748.202	288.918
748.330	286.526
748.458	287.175
748.587	284.608
748.715	282.072
748.843	281.773
748.971	282.814
749.099	283.732
749.227	278.474
749.355	275.845
749.483	280.155
749.612	279.464
749.740	274.876
749.868	275.485
749.996	274.845
750.124	276.959
750.252	272.206
750.380	273.845
750.508	272.247
750.637	271.464
750.765	269.423
750.893	270.268
751.021	265.948
751.149	263.629
751.277	267.155
751.405	264.969
751.533	261.216
751.662	274.588
751.790	268.979
751.918	267.443
752.046	264.515
752.174	263.887
752.302	263.680
752.430	263.247
752.558	260.278
752.687	258.784
752.815	260.299
752.943	257.412
753.071	257.608
753.199	256.691
753.327	256.103
753.455	252.629
753.583	254.866
753.712	252.485
753.840	254.639
753.968	255.299
754.096	250.340
754.224	250.062
754.352	249.103
754.480	254.093
754.608	249.557
754.737	251.361
754.865	246.722
754.993	245.732
755.121	244.412
755.249	248.938
755.377	241.722
755.505	243.351
755.633	244.680
755.762	243.990
755.890	239.845
756.018	237.990
756.146	235.619
756.274	241.784
756.402	232.361
756.530	235.742
756.658	238.258
756.787	236.371
756.915	234.062
757.043	234.402
757.171	233.289
757.299	233.897
757.427	230.031
757.555	233.567
757.683	231.299
757.812	229.577
757.940	230.361
758.068	232.763
758.196	223.526
758.324	229.082
758.452	225.351
758.580	221.454
758.708	235.237
758.837	224.062
758.965	221.557
759.093	223.845
759.221	221.216
759.349	226.155
759.477	217.443
759.605	218.165
759.733	219.495
759.862	219.175
759.990	214.041
760.118	214.670
760.246	217.835
760.374	214.680
760.502	214.639
760.630	209.598
760.758	209.155
760.887	211.660
761.015	213.052
761.143	212.103
761.271	210.237
761.399	209.340
761.527	210.299
761.655	205.670
761.783	207.577
761.912	204.485
762.040	203.082
762.168	205.186
762.296	201.680
762.424	206.103
762.552	202.866
762.680	202.495
762.808	199.072
762.937	204.381
763.065	200.763
763.193	201.608
763.321	200.691
763.449	200.753
763.577	197.206
763.705	195.010
763.833	200.742
763.962	195.495
764.090	196.227
764.218	196.557
764.346	192.990
764.474	194.969
764.602	192.918
764.730	197.031
764.858	194.691
764.987	192.649
765.115	191.031
765.243	193.082
765.371	189.196
765.499	187.938
765.627	189.196
765.755	188.062
765.883	186.227
766.012	189.196
766.140	189.598
766.268	189.474
766.396	190.464
766.524	186.330
766.652	186.412
766.780	184.175
766.908	184.423
767.037	184.577
767.165	186.392
767.293	187.258
767.421	185.402
767.549	184.887
767.677	186.629
767.805	183.577
767.933	183.423
768.062	183.454
768.190	180.948
768.318	183.351
768.446	183.082
768.574	182.196
768.702	183.258
768.830	184.577
768.958	178.474
769.087	182.237
769.215	182.536
769.343	179.639
769.471	180.103
769.599	179.464
769.727	180.660
769.855	182.577
769.983	175.948
770.112	179.660
770.240	179.454
770.368	178.278
770.496	179.402
770.624	175.515
770.752	183.320
770.880	176.381
771.008	174.876
771.137	178.351
771.265	176.660
771.393	176.443
771.521	177.371
771.649	176.010
771.777	175.196
771.905	176.711
772.033	179.258
772.162	177.660
772.290	172.969
772.418	176.928
772.546	175.412
772.674	178.619
772.802	174.392
772.930	174.103
773.058	172.526
773.187	171.845
773.315	171.670
773.443	168.835
773.571	173.557
773.699	170.948
773.827	169.763
773.955	173.732
774.083	172.289
774.212	168.670
774.340	173.711
774.468	172.969
774.596	167.711
774.724	171.237
774.852	172.897
774.980	169.515
775.108	167.299
775.237	170.454
775.365	167.505
775.493	168.773
775.621	168.546
775.749	167.948
775.877	169.835
776.005	168.660
776.133	171.680
776.262	170.072
776.390	167.258
776.518	165.464
776.646	165.629
776.774	166.856
776.902	167.175
777.030	163.990
777.158	165.072
777.287	166.670
777.415	166.588
777.543	164.196
777.671	165.763
777.799	166.031
777.927	165.876
778.055	163.454
778.183	167.175
778.312	163.835
778.440	162.825
778.568	164.299
778.696	162.031
778.824	168.103
778.952	166.320
779.080	158.649
779.208	162.247
779.337	161.175
779.465	163.577
779.593	161.113
779.721	161.371
779.849	159.309
779.977	161.299
780.105	161.082
780.233	161.134
780.362	159.526
780.490	160.876
780.618	162.876
780.746	156.773
780.874	159.093
781.002	159.763
781.130	160.701
781.258	157.794
781.387	160.546
781.515	159.299
781.643	156.526
781.771	158.918
781.899	159.423
782.027	155.041
782.155	158.371
782.283	157.722
782.412	156.062
782.540	159.567
782.668	156.753
782.796	157.041
782.924	155.474
783.052	150.155
783.180	155.454
783.308	157.680
783.437	154.134
783.565	154.495
783.693	154.206
783.821	156.289
783.949	156.804
784.077	154.320
784.205	152.247
784.333	155.423
784.462	154.897
784.590	156.175
784.718	154.732
784.846	153.351
784.974	151.165
785.102	155.155
785.230	153.577
785.358	152.938
785.487	153.340
785.615	151.320
785.743	153.660
785.871	147.938
785.999	152.753
786.127	151.835
786.255	152.289
786.383	153.722
786.512	151.186
786.640	149.526
786.768	150.722
786.896	150.794
787.024	151.639
787.152	146.990
787.280	150.000
787.408	152.155
787.537	149.216
787.665	150.959
787.793	148.371
787.921	151.175
788.049	151.351
788.177	151.093
788.305	151.237
788.433	152.557
788.562	147.742
788.690	150.113
788.818	147.093
788.946	149.649
789.074	146.134
789.202	147.320
789.330	147.216
789.458	148.629
789.587	145.660
789.715	147.402
789.843	148.186
789.971	148.536
790.099	146.000
790.227	142.804
790.355	145.557
790.483	147.649
790.612	144.433
790.740	147.309
790.868	147.278
790.996	146.247
791.124	143.876
791.252	142.340
791.380	147.794
791.508	143.175
791.637	147.619
791.765	143.505
791.893	141.072
792.021	144.021
792.149	143.216
792.277	143.660
792.405	146.990
792.533	143.052
792.662	142.814
792.790	147.381
792.918	144.619
793.046	139.649
793.174	141.010
793.302	142.742
793.430	140.732
793.558	143.938
793.687	143.206
793.815	143.082
793.943	141.464
794.071	140.763
794.199	140.320
794.327	140.784
794.455	142.619
794.583	140.392
794.712	141.649
794.840	137.381
794.968	137.134
795.096	140.268
795.224	141.598
795.352	139.763
795.480	137.175
795.608	141.577
795.737	140.979
795.865	136.866
795.993	137.608
796.121	141.247
796.249	136.309
796.377	137.278
796.505	138.474
796.633	138.278
796.762	137.742
796.890	140.629
797.018	138.433
797.146	138.732
797.274	137.278
797.402	137.546
797.530	136.093
797.658	138.041
797.787	135.876
797.915	137.959
798.043	137.175
798.171	136.670
798.299	135.330
798.427	137.010
798.555	132.814
798.683	134.608
798.812	134.639
798.940	133.000
799.068	136.041
799.196	134.536
799.324	134.062
799.452	134.072
799.580	133.722
799.708	135.546
799.837	133.722
799.965	131.938
800.093	133.361
800.221	134.485
800.349	135.546
800.477	134.505
800.605	135.247
800.733	133.423
800.862	134.227
800.990	133.392
801.118	131.784
801.246	127.773
801.374	129.093
801.502	132.010
801.630	131.546
801.758	130.619
801.887	130.186
802.015	128.392
802.143	133.113
802.271	132.474
802.399	131.969
802.527	130.041
802.655	129.845
802.783	131.289
802.912	130.701
803.040	130.320
803.168	129.639
803.296	128.763
803.424	129.804
803.552	130.196
803.680	129.062
803.808	129.392
803.937	131.216
804.065	128.526
804.193	129.299
804.321	129.784
804.449	130.021
804.577	127.794
804.705	130.289
804.833	126.124
804.962	128.134
805.090	126.680
805.218	128.897
805.346	126.113
805.474	126.567
805.602	130.526
805.730	126.289
805.858	126.619
805.987	128.433
806.115	127.155
806.243	127.464
806.371	127.711
806.499	126.918
806.627	126.258
806.755	126.732
806.883	125.814
807.012	125.371
807.140	126.433
807.268	124.753
807.396	128.186
807.524	125.608
807.652	125.206
807.780	127.753
807.908	124.732
808.037	125.505
808.165	123.825
808.293	124.887
808.421	124.247
808.549	125.412
808.677	125.041
808.805	126.814
808.933	124.268
809.062	123.515
809.190	124.216
809.318	125.588
809.446	125.412
809.574	123.093
809.702	126.082
809.830	124.753
809.958	123.701
810.087	122.804
810.215	128.113
810.343	127.206
810.471	125.969
810.599	124.515
810.727	126.515
810.855	123.784
810.983	122.237
811.112	123.134
811.240	121.361
811.368	120.629
811.496	124.278
811.624	124.062
811.752	123.247
811.880	125.526
812.008	122.021
812.137	123.670
812.265	123.485
812.393	122.979
812.521	119.309
812.649	121.536
812.777	121.278
812.905	122.887
813.033	122.155
813.162	118.969
813.290	122.732
813.418	121.629
813.546	121.485
813.674	120.155
813.802	121.031
813.930	118.732
814.058	122.216
814.187	122.897
814.315	119.567
814.443	121.732
814.571	120.567
814.699	119.784
814.827	123.526
814.955	122.155
815.083	122.639
815.212	120.526
815.340	119.237
815.468	118.670
815.596	120.155
815.724	120.536
815.852	120.062
815.980	119.784
816.108	119.258
816.237	120.619
816.365	118.557
816.493	119.155
816.621	118.299
816.749	120.526
816.877	120.021
817.005	119.351
817.133	119.887
817.262	117.588
817.390	121.392
817.518	117.990
817.646	118.660
817.774	118.041
817.902	118.959
818.030	117.505
818.158	120.351
818.287	119.144
818.415	118.619
818.543	119.155
818.671	119.536
818.799	116.979
818.927	118.742
819.055	118.629
819.183	118.814
819.312	117.680
819.440	118.351
819.568	117.773
819.696	117.948
819.824	118.753
819.952	117.423
820.080	116.093
820.208	117.392
820.337	116.258
820.465	117.134
820.593	114.784
820.721	117.196
820.849	114.866
820.977	117.216
821.105	117.598
821.233	115.866
821.362	115.433
821.490	115.918
821.618	116.124
821.746	114.351
821.874	115.299
822.002	114.536
822.130	115.165
822.258	115.165
822.387	114.660
822.515	115.701
822.643	115.907
822.771	114.691
822.899	114.948
823.027	116.794
823.155	115.938
823.283	115.165
823.412	117.082
823.540	114.433
823.668	116.320
823.796	114.588
823.924	114.825
824.052	113.742
824.180	113.124
824.308	114.845
824.437	114.763
824.565	113.567
824.693	114.577
824.821	114.598
824.949	114.608
825.077	112.103
825.205	112.784
825.333	113.371
825.462	114.103
825.590	111.526
825.718	113.670
825.846	114.464
825.974	113.876
826.102	113.814
826.230	112.918
826.358	112.278
826.487	112.278
826.615	111.979
826.743	113.464
826.871	113.082
826.999	114.794
827.127	113.515
827.255	111.856
827.383	111.732
827.512	111.928
827.640	112.948
827.768	112.309
827.896	112.206
828.024	112.227
828.152	112.536
828.280	113.113
828.408	114.701
828.537	114.691
828.665	112.608
828.793	112.546
828.921	111.608
829.049	111.732
829.177	111.794
829.305	112.876
829.433	110.814
829.562	111.825
829.690	112.052
829.818	110.794
829.946	111.000
830.074	110.443
830.202	112.330
830.330	110.515
830.458	111.299
830.587	110.691
830.715	111.990
830.843	111.732
830.971	112.732
831.099	111.732
831.227	111.072
831.355	111.485
831.483	111.000
831.612	111.814
831.740	111.567
831.868	113.485
831.996	111.608
832.124	111.577
832.252	110.062
832.380	111.144
832.508	110.887
832.637	111.433
832.765	111.608
832.893	111.351
833.021	110.289
833.149	110.340
833.277	111.515
833.405	111.918
833.533	109.959
833.662	110.361
833.790	110.990
833.918	111.082
834.046	111.938
834.174	111.763
834.302	111.454
834.430	110.918
834.558	111.000
834.687	111.784
834.815	110.062
834.943	110.711
835.071	110.392
835.199	110.165
835.327	110.247
835.455	109.804
835.583	111.309
835.712	109.835
835.840	109.856
835.968	107.691
836.096	109.649
836.224	111.165
836.352	110.144
836.480	110.979
836.608	111.144
836.737	110.866
836.865	110.381
836.993	109.773
837.121	110.567
837.249	110.474
837.377	109.247
837.505	109.299
837.633	110.186
837.762	109.443
837.890	110.299
838.018	108.701
838.146	108.588
838.274	109.299
838.402	110.186
838.530	109.309
838.658	108.392
838.787	109.124
838.915	108.773
839.043	110.113
839.171	109.526
839.299	109.979
839.427	108.515
839.555	109.959
839.683	110.052
839.812	109.742
839.940	109.237
840.068	109.753
840.196	108.474
840.324	109.660
840.452	110.289
840.580	107.907
840.708	109.010
840.837	109.835
840.965	107.320
841.093	108.361
841.221	109.856
841.349	110.278
841.477	108.216
841.605	108.072
841.733	107.928
841.862	110.052
841.990	108.845
842.118	109.021
842.246	107.423
842.374	109.515
842.502	109.351
842.630	108.691
842.758	109.588
842.887	109.031
843.015	109.495
843.143	108.175
843.271	107.340
843.399	108.732
843.527	107.732
843.655	107.062
843.783	107.402
843.912	107.134
844.040	109.402
844.168	109.062
844.296	109.000
844.424	108.330
844.552	107.680
844.680	107.649
844.808	108.588
844.937	109.237
845.065	108.103
845.193	109.649
845.321	108.227
845.449	106.660
845.577	107.938
845.705	107.433
845.833	106.536
845.962	107.113
846.090	106.515
846.218	107.856
846.346	108.165
846.474	107.000
846.602	107.309
846.730	108.082
846.858	107.186
846.987	106.464
847.115	108.124
847.243	108.052
847.371	108.278
847.499	106.691
847.627	107.907
847.755	106.598
847.883	106.361
848.012	106.711
848.140	105.515
848.268	105.247
848.396	106.814
848.524	108.412
848.652	106.928
848.780	106.515
848.908	108.124
849.037	107.670
849.165	106.309
849.293	105.918
849.421	106.959
849.549	107.660
849.677	105.381
849.805	106.330
849.933	107.113
850.062	107.247
850.190	108.433
850.318	106.753
850.446	107.732
850.574	106.979
850.702	107.371
850.830	106.660
850.958	105.722
851.087	106.196
851.215	106.227
851.343	106.082
851.471	105.505
851.599	105.990
851.727	105.381
851.855	105.629
851.983	105.701
852.112	105.794
852.240	105.742
852.368	106.268
852.496	105.237
852.624	105.660
852.752	105.351
852.880	105.598
853.008	105.742
853.137	106.041
853.265	105.546
853.393	106.814
853.521	105.351
853.649	105.660
853.777	105.794
853.905	106.258
854.033	105.546
854.162	105.588
854.290	105.196
854.418	104.165
854.546	104.588
854.674	105.928
854.802	104.990
854.930	103.402
855.058	104.732
855.187	105.825
855.315	105.165
855.443	105.619
855.571	106.959
855.699	106.113
855.827	103.732
855.955	104.536
856.083	105.278
856.212	105.309
856.340	106.526
856.468	105.155
856.596	104.990
856.724	104.629
856.852	103.845
856.980	104.072
857.108	104.237
857.237	105.722
857.365	104.371
857.493	105.485
857.621	104.567
857.749	104.093
857.877	104.041
858.005	105.515
858.133	104.629
858.262	104.979
858.390	105.680
858.518	104.856
858.646	106.041
858.774	105.474
858.902	104.412
859.030	105.299
859.158	104.670
859.287	104.557
859.415	103.175
859.543	104.155
859.671	105.155
859.799	105.897
859.927	104.588
860.055	106.021
860.183	104.000
860.312	103.639
860.440	104.423
860.568	104.093
860.696	103.763
860.824	104.639
860.952	104.567
861.080	104.907
861.208	105.227
861.337	103.454
861.465	103.031
861.593	105.536
861.721	104.598
861.849	103.412
861.977	103.340
862.105	105.144
862.233	104.206
862.362	103.371
862.490	103.608
862.618	103.907
862.746	104.258
862.874	104.237
863.002	104.443
863.130	104.000
863.258	103.567
863.387	104.196
863.515	104.423
863.643	103.876
863.771	104.680
863.899	103.856
864.027	106.268
864.155	104.309
864.283	103.000
864.412	103.588
864.540	103.825
864.668	102.093
864.796	104.536
864.924	104.330
865.052	104.351
865.180	103.680
865.308	104.082
865.437	103.979
865.565	104.598
865.693	103.969
865.821	103.299
865.949	104.392
866.077	104.990
866.205	103.258
866.333	101.866
866.462	102.876
866.590	103.247
866.718	103.289
866.846	103.990
866.974	104.907
867.102	102.619
867.230	102.918
867.358	103.206
867.487	103.320
867.615	102.814
867.743	103.206
867.871	105.000
867.999	104.381
868.127	102.711
868.255	103.495
868.383	103.691
868.512	104.381
868.640	103.990
868.768	104.969
868.896	102.443
869.024	102.515
869.152	103.742
869.280	103.835
869.408	103.206
869.537	102.845
869.665	103.309
869.793	102.887
869.921	103.289
870.049	103.371
870.177	103.588
870.305	103.082
870.433	103.722
870.562	103.876
870.690	103.845
870.818	102.804
870.946	103.825
871.074	102.835
871.202	102.175
871.330	104.052
871.458	105.381
871.587	104.897
871.715	102.093
871.843	102.320
871.971	103.577
872.099	102.175
872.227	102.175
872.355	103.237
872.483	102.567
872.612	104.371
872.740	102.196
872.868	102.546
872.996	101.021
873.124	102.309
873.252	103.608
873.380	102.144
873.508	103.794
873.637	103.825
873.765	102.031
873.893	101.433
874.021	103.722
874.149	103.268
874.277	104.845
874.405	102.835
874.533	102.351
874.662	101.289
874.790	102.309
874.918	102.948
875.046	101.804
875.174	102.856
875.302	103.103
875.430	101.588
875.558	101.289
875.687	102.299
875.815	102.103
875.943	102.608
876.071	102.866
876.199	103.763
876.327	102.000
876.455	102.680
876.583	103.515
876.712	102.309
876.840	101.124
876.968	103.979
877.096	103.216
877.224	102.660
877.352	102.639
877.480	101.495
877.608	101.907
877.737	100.588
877.865	100.979
877.993	101.062
878.121	102.990
878.249	104.443
878.377	101.196
878.505	100.948
878.633	102.546
878.762	103.897
878.890	102.474
879.018	101.969
879.146	102.660
879.274	102.196
879.402	102.505
879.530	101.948
879.658	101.423
879.787	101.577
879.915	101.258
880.043	101.474
880.171	101.052
880.299	101.227
880.427	100.907
880.555	102.474
880.683	102.268
880.812	102.216
880.940	100.722
881.068	102.536
881.196	101.258
881.324	102.309
881.452	102.825
881.580	101.763
881.708	101.680
881.837	101.722
881.965	100.784
882.093	100.402
882.221	101.763
882.349	100.711
882.477	102.299
882.605	102.629
882.733	102.691
882.862	102.918
882.990	101.000
883.118	102.031
883.246	101.577
883.374	101.495
883.502	101.299
883.630	103.320
883.758	101.876
883.887	100.907
884.015	103.629
884.143	102.814
884.271	101.856
884.399	102.103
884.527	102.433
884.655	102.113
884.783	102.959
884.912	102.474
885.040	102.330
885.168	102.010
885.296	101.031
885.424	101.454
885.552	102.711
885.680	101.155
885.808	101.206
885.937	103.340
886.065	101.680
886.193	101.196
886.321	101.938
886.449	102.464
886.577	101.000
886.705	101.062
886.833	100.175
886.962	102.598
887.090	102.536
887.218	101.866
887.346	101.454
887.474	101.082
887.602	101.897
887.730	101.526
887.858	101.866
887.987	100.670
888.115	101.206
888.243	102.619
888.371	102.093
888.499	102.144
888.627	100.866
888.755	100.928
888.883	100.278
889.012	100.515
889.140	100.670
889.268	102.144
889.396	101.485
889.524	101.526
889.652	101.464
889.780	101.897
889.908	102.021
890.037	100.278
890.165	99.876
890.293	100.082
890.421	101.948
890.549	103.423
890.677	101.103
890.805	100.887
890.933	100.649
891.062	101.082
891.190	101.062
891.318	102.495
891.446	100.887
891.574	101.567
891.702	100.619
891.830	101.247
891.958	101.402
892.087	101.773
892.215	101.907
892.343	101.361
892.471	101.979
892.599	101.155
892.727	102.113
892.855	101.474
892.983	102.536
893.112	101.660
893.240	101.320
893.368	101.588
893.496	101.330
893.624	102.021
893.752	101.144
893.880	100.773
894.008	100.577
894.137	101.670
894.265	102.093
894.393	101.485
894.521	100.247
894.649	101.227
894.777	101.206
894.905	101.103
895.033	102.454
895.162	101.515
895.290	101.515
895.418	101.773
895.546	101.649
895.674	99.660
895.802	99.979
895.930	100.639
896.058	100.320
896.187	100.577
896.315	101.392
896.443	101.969
896.571	101.412
896.699	101.464
896.827	101.722
896.955	101.660
897.083	102.144
897.212	102.598
897.340	100.010
897.468	99.794
897.596	100.557
897.724	100.701
897.852	101.608
897.980	100.443
898.108	99.557
898.237	101.010
898.365	100.546
898.493	101.299
898.621	100.268
898.749	100.196
898.877	100.680
899.005	100.825
899.133	102.299
899.262	100.979
899.390	100.608
899.518	100.629
899.646	99.670
899.774	101.052
899.902	101.629
900.030	100.814
900.158	100.608
900.287	102.557
900.415	101.206
900.543	101.289
900.671	101.918
900.799	100.412
900.927	101.144
901.055	99.804
901.183	100.753
901.312	101.278
901.440	102.052
901.568	101.990
901.696	99.948
901.824	100.216
901.952	100.371
902.080	100.072
902.208	101.144
902.337	101.835
902.465	100.670
902.593	102.010
902.721	101.742
902.849	102.526
902.977	100.454
903.105	100.299
903.233	99.856
903.362	101.433
903.490	101.072
903.618	100.247
903.746	100.351
903.874	101.392
904.002	101.887
904.130	100.887
904.258	100.454
904.387	101.072
904.515	100.175
904.643	102.072
904.771	101.309
904.899	100.351
905.027	101.093
905.155	98.711
905.283	100.598
905.412	100.433
905.540	100.113
905.668	101.113
905.796	99.113
905.924	100.794
906.052	100.155
906.180	101.186
906.308	98.876
906.437	99.505
906.565	99.918
906.693	100.845
906.821	98.845
906.949	100.371
907.077	99.845
907.205	100.577
907.333	100.711
907.462	100.784
907.590	101.443
907.718	99.732
907.846	101.474
907.974	101.670
908.102	101.144
908.230	100.062
908.358	99.134
908.487	98.526
908.615	100.124
908.743	100.371
908.871	101.072
908.999	99.938
909.127	100.155
909.255	99.732
909.383	99.237
909.512	101.835
909.640	101.454
909.768	101.351
909.896	101.753
910.024	101.144
910.152	102.041
910.280	101.041
910.408	101.093
910.537	101.392
910.665	101.268
910.793	102.546
910.921	100.825
911.049	99.567
911.177	99.371
911.305	100.392
911.433	101.742
911.562	101.742
911.690	102.144
911.818	99.938
911.946	100.979
912.074	100.784
912.202	101.052
912.330	100.320
912.458	101.619
912.587	99.876
912.715	100.639
912.843	102.268
912.971	102.237
913.099	100.010
913.227	103.258
913.355	102.000
913.483	100.062
913.612	100.979
913.740	100.371
913.868	101.010
