sample9u_at_750.00nm_cut_at_1060.50Y_01.dat
19.06.2023
11:14:21
cut middle at Y: 1060.50
top cursor: 1109 down cursor: 1012 mean of: 97 lines , 2560 datapoints
wavelength(nm)	intensity[arb. units]
585.996	2324.021
586.124	2250.732
586.252	2236.928
586.380	2238.010
586.508	2247.515
586.637	2248.536
586.765	2269.072
586.893	2258.206
587.021	2278.124
587.149	2293.546
587.277	2304.186
587.405	2313.773
587.533	2290.804
587.662	2301.443
587.790	2324.402
587.918	2320.845
588.046	2307.443
588.174	2315.361
588.302	2330.794
588.430	2331.258
588.558	2344.351
588.687	2346.175
588.815	2368.031
588.943	2358.433
589.071	2368.887
589.199	2374.763
589.327	2372.773
589.455	2355.052
589.583	2374.732
589.712	2400.742
589.840	2401.423
589.968	2384.412
590.096	2406.165
590.224	2407.876
590.352	2410.186
590.480	2423.464
590.608	2430.103
590.737	2409.392
590.865	2452.567
590.993	2435.247
591.121	2426.103
591.249	2453.196
591.377	2451.773
591.505	2442.577
591.633	2473.670
591.762	2469.619
591.890	2528.794
592.018	2467.443
592.146	2470.082
592.274	2497.113
592.402	2465.866
592.530	2496.773
592.658	2590.979
592.787	2519.825
592.915	2560.835
593.043	2498.608
593.171	2515.835
593.299	2541.866
593.427	2528.309
593.555	2509.371
593.683	2546.794
593.812	2545.588
593.940	2567.392
594.068	2554.320
594.196	2580.670
594.324	2586.680
594.452	2622.887
594.580	2581.206
594.708	2612.567
594.837	2615.546
594.965	2683.979
595.093	2636.536
595.221	2661.031
595.349	2740.701
595.477	2646.742
595.605	2669.278
595.733	2657.134
595.862	2810.876
595.990	2686.072
596.118	2706.763
596.246	2841.979
596.374	2717.598
596.502	2710.948
596.630	2759.773
596.758	2727.732
596.887	2722.062
597.015	2742.021
597.143	2730.361
597.271	2745.423
597.399	2744.299
597.527	2738.598
597.655	2768.082
597.783	2751.701
597.912	2754.588
598.040	2776.814
598.168	2823.175
598.296	2752.371
598.424	2841.124
598.552	2797.897
598.680	2766.371
598.808	2896.722
598.937	2792.062
599.065	2804.505
599.193	2887.515
599.321	2872.340
599.449	2806.918
599.577	2796.804
599.705	2888.887
599.833	2805.814
599.962	2811.237
600.090	2862.753
600.218	2843.969
600.346	2896.680
600.474	2833.340
600.602	2821.474
600.730	2854.268
600.858	2831.959
600.987	2963.392
601.115	2876.021
601.243	2858.165
601.371	2891.845
601.499	2918.938
601.627	2890.825
601.755	2895.258
601.883	2959.165
602.012	2899.144
602.140	2932.619
602.268	2995.124
602.396	2962.454
602.524	2935.113
602.652	2971.175
602.780	2976.629
602.908	2984.237
603.037	3045.701
603.165	3002.866
603.293	3053.701
603.421	3030.021
603.549	3033.536
603.677	3108.567
603.805	3052.072
603.933	3091.691
604.062	3176.361
604.190	3134.134
604.318	3106.536
604.446	3099.753
604.574	3163.495
604.702	3165.979
604.830	3165.320
604.958	3160.856
605.087	3184.443
605.215	3192.876
605.343	3223.495
605.471	3251.392
605.599	3236.062
605.727	3250.485
605.855	3265.186
605.983	3242.237
606.112	3265.629
606.240	3273.536
606.368	3282.392
606.496	3396.763
606.624	3276.237
606.752	3312.278
606.880	3436.876
607.008	3441.794
607.137	3401.979
607.265	3314.794
607.393	3345.526
607.521	3433.062
607.649	3312.062
607.777	3367.876
607.905	3384.845
608.033	3370.371
608.162	3350.660
608.290	3406.144
608.418	3397.495
608.546	3427.701
608.674	3443.515
608.802	3355.072
608.930	3390.536
609.058	3356.021
609.187	3421.474
609.315	3414.608
609.443	3353.443
609.571	3475.784
609.699	3347.722
609.827	3406.711
609.955	3414.938
610.083	3360.515
610.212	3369.505
610.340	3374.897
610.468	3455.093
610.596	3443.639
610.724	3438.515
610.852	3412.598
610.980	3413.670
611.108	3460.206
611.237	3368.918
611.365	3397.814
611.493	3397.175
611.621	3409.577
611.749	3413.227
611.877	3435.402
612.005	3437.216
612.133	3464.021
612.262	3441.546
612.390	3454.515
612.518	3503.381
612.646	3537.825
612.774	3459.052
612.902	3471.629
613.030	3442.753
613.158	3559.299
613.287	3523.072
613.415	3468.381
613.543	3500.454
613.671	3519.175
613.799	3530.351
613.927	3568.969
614.055	3526.546
614.183	3635.340
614.312	3521.938
614.440	3687.845
614.568	3565.474
614.696	3551.165
614.824	3685.526
614.952	3602.082
615.080	3543.062
615.208	3633.928
615.337	3627.660
615.465	3581.464
615.593	3599.093
615.721	3638.897
615.849	3652.031
615.977	3632.742
616.105	3679.392
616.233	3612.371
616.362	3689.021
616.490	3612.268
616.618	3611.041
616.746	3722.938
616.874	3683.588
617.002	3648.340
617.130	3705.247
617.258	3742.454
617.387	3629.887
617.515	3610.392
617.643	3658.691
617.771	3710.134
617.899	3690.979
618.027	3639.979
618.155	3751.412
618.283	3663.052
618.412	3672.619
618.540	3741.124
618.668	3695.990
618.796	3665.814
618.924	3744.299
619.052	3651.536
619.180	3644.557
619.308	3705.247
619.437	3682.660
619.565	3687.268
619.693	3668.649
619.821	3681.907
619.949	3668.186
620.077	3718.649
620.205	3705.567
620.333	3713.814
620.462	3707.134
620.590	3748.588
620.718	3662.990
620.846	3748.691
620.974	3714.412
621.102	3726.526
621.230	3670.814
621.358	3810.711
621.487	3655.186
621.615	3688.247
621.743	3680.227
621.871	3719.711
621.999	3741.433
622.127	3681.515
622.255	3674.979
622.383	3693.505
622.512	3677.309
622.640	3788.670
622.768	3662.856
622.896	3708.546
623.024	3686.124
623.152	3731.371
623.280	3728.639
623.408	3644.784
623.537	3650.887
623.665	3624.732
623.793	3690.691
623.921	3643.742
624.049	3624.464
624.177	3658.289
624.305	3650.814
624.433	3672.691
624.562	3635.361
624.690	3701.165
624.818	3650.784
624.946	3736.753
625.074	3659.701
625.202	3582.113
625.330	3581.691
625.458	3663.247
625.587	3606.691
625.715	3663.608
625.843	3700.052
625.971	3620.289
626.099	3602.124
626.227	3593.660
626.355	3575.031
626.483	3668.485
626.612	3565.309
626.740	3562.639
626.868	3616.784
626.996	3564.794
627.124	3551.598
627.252	3529.773
627.380	3571.608
627.508	3565.278
627.637	3536.113
627.765	3571.186
627.893	3553.144
628.021	3553.711
628.149	3525.773
628.277	3579.412
628.405	3604.979
628.533	3512.619
628.662	3587.608
628.790	3554.175
628.918	3538.330
629.046	3559.577
629.174	3518.278
629.302	3596.330
629.430	3486.928
629.558	3541.557
629.687	3494.588
629.815	3523.072
629.943	3557.258
630.071	3543.340
630.199	3520.134
630.327	3519.237
630.455	3481.093
630.583	3551.031
630.712	3532.381
630.840	3507.732
630.968	3544.515
631.096	3493.041
631.224	3485.649
631.352	3529.711
631.480	3511.691
631.608	3551.443
631.737	3518.825
631.865	3647.577
631.993	3521.928
632.121	3604.979
632.249	3553.454
632.377	3528.175
632.505	3499.546
632.633	3437.340
632.762	3481.639
632.890	3558.268
633.018	3437.340
633.146	3466.464
633.274	3478.082
633.402	3480.897
633.530	3405.825
633.658	3522.546
633.787	3408.567
633.915	3434.268
634.043	3422.691
634.171	3417.247
634.299	3436.567
634.427	3464.485
634.555	3471.258
634.683	3393.928
634.812	3382.938
634.940	3358.763
635.068	3327.649
635.196	3353.258
635.324	3311.320
635.452	3381.000
635.580	3357.629
635.708	3288.433
635.837	3360.082
635.965	3308.196
636.093	3293.732
636.221	3258.000
636.349	3318.082
636.477	3237.216
636.605	3354.361
636.733	3203.536
636.862	3217.495
636.990	3236.691
637.118	3279.990
637.246	3236.031
637.374	3249.897
637.502	3189.804
637.630	3153.082
637.758	3190.113
637.887	3126.773
638.015	3188.021
638.143	3144.474
638.271	3127.918
638.399	3135.845
638.527	3087.278
638.655	3086.237
638.783	3177.918
638.912	3139.392
639.040	3106.763
639.168	3109.948
639.296	3083.103
639.424	3176.443
639.552	3046.639
639.680	3054.227
639.808	3087.825
639.937	3026.144
640.065	3001.371
640.193	3056.216
640.321	3003.000
640.449	3043.619
640.577	3045.567
640.705	2996.247
640.833	3061.887
640.962	3012.062
641.090	2970.237
641.218	2942.041
641.346	2979.495
641.474	2962.485
641.602	2933.454
641.730	2930.938
641.858	2904.124
641.987	2949.670
642.115	2971.639
642.243	2956.175
642.371	2977.536
642.499	2932.103
642.627	2948.165
642.755	2932.505
642.883	2960.845
643.012	2896.000
643.140	2888.289
643.268	2925.639
643.396	2876.082
643.524	2966.000
643.652	2897.763
643.780	2875.887
643.908	2865.433
644.037	2983.649
644.165	2883.485
644.293	2921.247
644.421	2833.887
644.549	2892.485
644.677	2872.546
644.805	2866.649
644.933	2827.773
645.062	2827.567
645.190	2879.948
645.318	2897.165
645.446	2823.856
645.574	2806.320
645.702	2820.340
645.830	2912.567
645.958	2776.103
646.087	2908.856
646.215	2764.701
646.343	2907.196
646.471	2846.021
646.599	2795.320
646.727	2765.701
646.855	2766.794
646.983	2783.175
647.112	2767.031
647.240	2855.619
647.368	2741.402
647.496	2781.340
647.624	2701.031
647.752	2691.082
647.880	2693.144
648.008	2691.814
648.137	2669.392
648.265	2667.103
648.393	2677.485
648.521	2676.577
648.649	2670.753
648.777	2663.948
648.905	2628.423
649.033	2640.216
649.162	2633.670
649.290	2609.165
649.418	2630.918
649.546	2612.495
649.674	2648.237
649.802	2602.990
649.930	2687.351
650.058	2558.897
650.187	2572.196
650.315	2562.392
650.443	2610.175
650.571	2549.320
650.699	2540.887
650.827	2524.144
650.955	2533.165
651.083	2547.340
651.212	2539.392
651.340	2560.505
651.468	2517.155
651.596	2504.206
651.724	2492.598
651.852	2484.402
651.980	2470.433
652.108	2514.619
652.237	2474.629
652.365	2479.814
652.493	2450.464
652.621	2446.711
652.749	2465.247
652.877	2441.072
653.005	2435.907
653.133	2426.629
653.262	2432.124
653.390	2399.794
653.518	2438.526
653.646	2393.773
653.774	2428.732
653.902	2412.639
654.030	2382.866
654.158	2370.351
654.287	2385.784
654.415	2362.948
654.543	2376.402
654.671	2356.856
654.799	2342.464
654.927	2340.155
655.055	2328.948
655.183	2314.660
655.312	2322.639
655.440	2317.062
655.568	2305.649
655.696	2320.165
655.824	2305.753
655.952	2298.031
656.080	2279.701
656.208	2304.423
656.337	2256.340
656.465	2282.124
656.593	2267.629
656.721	2253.701
656.849	2275.268
656.977	2242.567
657.105	2247.660
657.233	2227.722
657.362	2221.701
657.490	2212.557
657.618	2223.278
657.746	2211.320
657.874	2193.165
658.002	2185.814
658.130	2187.340
658.258	2192.732
658.387	2177.186
658.515	2164.536
658.643	2159.072
658.771	2164.278
658.899	2141.124
659.027	2149.268
659.155	2133.670
659.283	2121.959
659.412	2113.320
659.540	2102.515
659.668	2114.969
659.796	2100.691
659.924	2120.588
660.052	2092.577
660.180	2075.113
660.308	2089.938
660.437	2070.485
660.565	2064.000
660.693	2072.351
660.821	2062.464
660.949	2068.103
661.077	2048.845
661.205	2044.485
661.333	2036.216
661.462	2054.010
661.590	2035.918
661.718	2037.887
661.846	2014.526
661.974	2024.887
662.102	2011.155
662.230	2016.742
662.358	2008.784
662.487	1991.536
662.615	1988.577
662.743	1996.330
662.871	1984.742
662.999	1990.918
663.127	1970.515
663.255	1976.041
663.383	1977.701
663.512	1967.412
663.640	1967.629
663.768	1959.021
663.896	1964.330
664.024	1947.969
664.152	1950.196
664.280	1955.402
664.408	1921.619
664.537	1926.175
664.665	1931.577
664.793	1914.897
664.921	1896.959
665.049	1909.557
665.177	1922.113
665.305	1908.722
665.433	1906.649
665.562	1917.433
665.690	1898.918
665.818	1885.412
665.946	1884.948
666.074	1882.784
666.202	1888.876
666.330	1875.237
666.458	1873.041
666.587	1861.546
666.715	1874.165
666.843	1867.474
666.971	1854.680
667.099	1869.268
667.227	1866.175
667.355	1855.536
667.483	1854.041
667.612	1848.876
667.740	1845.237
667.868	1840.206
667.996	1834.732
668.124	1838.000
668.252	1833.320
668.380	1808.660
668.508	1828.598
668.637	1805.866
668.765	1816.155
668.893	1822.691
669.021	1813.608
669.149	1792.969
669.277	1792.814
669.405	1791.412
669.533	1780.485
669.662	1793.660
669.790	1787.959
669.918	1780.361
670.046	1763.412
670.174	1774.474
670.302	1770.351
670.430	1748.526
670.558	1738.701
670.687	1754.639
670.815	1742.237
670.943	1739.227
671.071	1726.371
671.199	1730.804
671.327	1710.505
671.455	1718.856
671.583	1722.330
671.712	1705.361
671.840	1695.000
671.968	1683.072
672.096	1687.649
672.224	1681.289
672.352	1671.155
672.480	1667.876
672.608	1667.412
672.737	1668.206
672.865	1653.711
672.993	1645.701
673.121	1642.505
673.249	1667.763
673.377	1628.144
673.505	1644.608
673.633	1621.835
673.762	1610.216
673.890	1614.536
674.018	1600.887
674.146	1598.526
674.274	1596.629
674.402	1580.856
674.530	1580.897
674.658	1584.299
674.787	1576.402
674.915	1564.814
675.043	1566.082
675.171	1560.381
675.299	1560.887
675.427	1553.784
675.555	1537.062
675.683	1537.856
675.812	1541.010
675.940	1528.598
676.068	1525.093
676.196	1521.742
676.324	1511.062
676.452	1505.155
676.580	1509.701
676.708	1508.536
676.837	1507.835
676.965	1481.515
677.093	1490.763
677.221	1481.773
677.349	1461.557
677.477	1477.577
677.605	1463.381
677.733	1470.237
677.862	1452.670
677.990	1468.485
678.118	1445.247
678.246	1439.639
678.374	1430.969
678.502	1433.062
678.630	1426.505
678.758	1431.247
678.887	1421.990
679.015	1433.031
679.143	1417.361
679.271	1397.351
679.399	1403.835
679.527	1403.722
679.655	1400.351
679.783	1395.876
679.912	1386.515
680.040	1390.186
680.168	1379.567
680.296	1370.742
680.424	1387.165
680.552	1369.856
680.680	1366.216
680.808	1369.021
680.937	1359.082
681.065	1359.041
681.193	1347.371
681.321	1352.381
681.449	1349.876
681.577	1341.722
681.705	1334.948
681.833	1336.196
681.962	1328.227
682.090	1334.959
682.218	1331.701
682.346	1325.361
682.474	1311.825
682.602	1328.155
682.730	1309.845
682.858	1310.701
682.987	1302.237
683.115	1306.577
683.243	1301.289
683.371	1303.959
683.499	1302.557
683.627	1298.495
683.755	1289.278
683.883	1300.897
684.012	1285.052
684.140	1286.835
684.268	1278.237
684.396	1274.052
684.524	1279.485
684.652	1277.474
684.780	1275.670
684.908	1281.722
685.037	1271.320
685.165	1277.289
685.293	1273.825
685.421	1267.155
685.549	1259.247
685.677	1264.237
685.805	1255.093
685.933	1253.546
686.062	1249.608
686.190	1250.711
686.318	1254.299
686.446	1248.072
686.574	1244.876
686.702	1240.619
686.830	1250.103
686.958	1245.825
687.087	1240.938
687.215	1235.557
687.343	1228.093
687.471	1231.753
687.599	1226.412
687.727	1223.062
687.855	1227.134
687.983	1214.897
688.112	1227.773
688.240	1207.289
688.368	1218.247
688.496	1213.155
688.624	1197.701
688.752	1211.825
688.880	1204.072
689.008	1199.031
689.137	1202.918
689.265	1188.907
689.393	1189.186
689.521	1186.237
689.649	1194.392
689.777	1179.258
689.905	1184.536
690.033	1183.443
690.162	1170.216
690.290	1168.577
690.418	1163.000
690.546	1172.701
690.674	1164.330
690.802	1159.361
690.930	1149.124
691.058	1148.093
691.187	1136.918
691.315	1149.278
691.443	1140.052
691.571	1136.227
691.699	1119.237
691.827	1123.247
691.955	1123.474
692.083	1116.938
692.212	1114.206
692.340	1111.753
692.468	1115.247
692.596	1099.722
692.724	1114.216
692.852	1100.155
692.980	1094.928
693.108	1091.897
693.237	1083.082
693.365	1087.392
693.493	1087.536
693.621	1076.773
693.749	1080.010
693.877	1070.237
694.005	1072.258
694.133	1075.804
694.262	1067.340
694.390	1065.660
694.518	1051.794
694.646	1058.536
694.774	1056.402
694.902	1042.897
695.030	1061.495
695.158	1041.969
695.287	1036.474
695.415	1038.557
695.543	1026.371
695.671	1037.062
695.799	1023.062
695.927	1029.660
696.055	1016.381
696.183	1034.485
696.312	1017.619
696.440	1004.876
696.568	1015.124
696.696	1012.907
696.824	1008.031
696.952	1001.660
697.080	992.392
697.208	1002.258
697.337	1003.227
697.465	991.320
697.593	982.825
697.721	993.876
697.849	984.887
697.977	978.082
698.105	985.680
698.233	984.320
698.362	975.000
698.490	979.340
698.618	957.186
698.746	966.680
698.874	957.412
699.002	964.361
699.130	948.330
699.258	954.196
699.387	944.990
699.515	936.052
699.643	952.454
699.771	945.289
699.899	942.536
700.027	931.402
700.155	939.526
700.283	928.433
700.412	923.010
700.540	930.237
700.668	917.990
700.796	918.979
700.924	910.701
701.052	906.794
701.180	910.876
701.308	901.206
701.437	896.454
701.565	899.144
701.693	891.969
701.821	898.206
701.949	887.887
702.077	886.773
702.205	885.773
702.333	879.443
702.462	882.598
702.590	880.608
702.718	882.402
702.846	867.278
702.974	866.010
703.102	860.979
703.230	860.021
703.358	847.340
703.487	843.969
703.615	846.608
703.743	838.680
703.871	835.804
703.999	829.608
704.127	827.732
704.255	824.031
704.383	826.155
704.512	814.887
704.640	820.526
704.768	813.773
704.896	807.753
705.024	809.433
705.152	804.856
705.280	805.804
705.408	795.041
705.537	798.052
705.665	802.021
705.793	788.649
705.921	781.464
706.049	791.959
706.177	781.680
706.305	782.691
706.433	781.144
706.562	768.072
706.690	770.392
706.818	764.175
706.946	762.825
707.074	762.897
707.202	758.495
707.330	744.897
707.458	751.351
707.587	743.990
707.715	745.052
707.843	739.691
707.971	737.649
708.099	736.670
708.227	738.144
708.355	731.577
708.483	732.515
708.612	729.082
708.740	735.340
708.868	718.392
708.996	726.526
709.124	717.402
709.252	710.010
709.380	708.340
709.508	712.907
709.637	704.052
709.765	699.825
709.893	693.608
710.021	702.526
710.149	704.340
710.277	695.031
710.405	699.433
710.533	692.093
710.662	692.113
710.790	689.247
710.918	683.629
711.046	685.052
711.174	678.938
711.302	682.000
711.430	673.103
711.558	681.052
711.687	669.763
711.815	668.526
711.943	671.474
712.071	667.474
712.199	668.082
712.327	659.701
712.455	661.907
712.583	666.598
712.712	660.361
712.840	653.948
712.968	657.753
713.096	648.835
713.224	649.062
713.352	655.856
713.480	639.351
713.608	649.134
713.737	646.330
713.865	643.969
713.993	641.845
714.121	637.567
714.249	635.021
714.377	633.392
714.505	635.742
714.633	631.443
714.762	625.814
714.890	625.361
715.018	620.423
715.146	622.938
715.274	622.021
715.402	621.474
715.530	625.536
715.658	617.753
715.787	612.887
715.915	619.979
716.043	610.216
716.171	618.021
716.299	616.144
716.427	606.598
716.555	607.608
716.683	603.454
716.812	603.948
716.940	605.041
717.068	598.773
717.196	597.722
717.324	594.155
717.452	599.072
717.580	591.938
717.708	589.979
717.837	586.897
717.965	585.155
718.093	584.794
718.221	578.546
718.349	577.639
718.477	578.010
718.605	575.845
718.733	575.979
718.862	574.866
718.990	569.196
719.118	571.289
719.246	566.330
719.374	567.598
719.502	568.113
719.630	559.711
719.758	560.619
719.887	560.041
720.015	556.402
720.143	550.588
720.271	557.711
720.399	554.072
720.527	550.144
720.655	547.742
720.783	543.175
720.912	543.175
721.040	538.144
721.168	540.010
721.296	538.052
721.424	532.278
721.552	537.763
721.680	529.052
721.808	528.866
721.937	529.206
722.065	521.155
722.193	525.206
722.321	522.031
722.449	515.918
722.577	516.577
722.705	511.124
722.833	510.639
722.962	508.825
723.090	506.557
723.218	507.268
723.346	503.330
723.474	502.052
723.602	495.371
723.730	499.577
723.858	497.113
723.987	500.155
724.115	490.753
724.243	489.299
724.371	489.402
724.499	492.742
724.627	484.567
724.755	481.876
724.883	486.856
725.012	485.082
725.140	481.237
725.268	475.381
725.396	474.649
725.524	475.247
725.652	477.278
725.780	470.361
725.908	468.969
726.037	469.144
726.165	463.010
726.293	469.907
726.421	460.608
726.549	458.856
726.677	460.278
726.805	455.155
726.933	453.794
727.062	451.670
727.190	443.186
727.318	444.175
727.446	446.227
727.574	444.856
727.702	447.742
727.830	448.268
727.958	441.299
728.087	440.216
728.215	440.196
728.343	438.567
728.471	434.887
728.599	438.072
728.727	434.000
728.855	429.340
728.983	432.990
729.112	428.959
729.240	425.866
729.368	424.289
729.496	425.649
729.624	422.804
729.752	423.381
729.880	418.505
730.008	422.062
730.137	414.144
730.265	418.309
730.393	412.175
730.521	413.392
730.649	412.392
730.777	407.247
730.905	406.742
731.033	397.804
731.162	408.629
731.290	406.485
731.418	406.247
731.546	404.103
731.674	406.454
731.802	400.485
731.930	402.928
732.058	393.773
732.187	395.485
732.315	392.588
732.443	398.278
732.571	390.907
732.699	388.701
732.827	389.990
732.955	388.082
733.083	385.021
733.212	383.536
733.340	386.536
733.468	386.557
733.596	381.639
733.724	381.134
733.852	377.113
733.980	377.402
734.108	377.722
734.237	378.289
734.365	369.299
734.493	376.351
734.621	371.062
734.749	374.227
734.877	370.907
735.005	371.845
735.133	370.742
735.262	370.186
735.390	368.361
735.518	361.763
735.646	366.134
735.774	367.474
735.902	362.216
736.030	359.361
736.158	357.392
736.287	362.505
736.415	362.691
736.543	360.784
736.671	354.186
736.799	355.670
736.927	349.928
737.055	358.299
737.183	351.000
737.312	352.113
737.440	347.237
737.568	346.412
737.696	354.711
737.824	347.196
737.952	344.103
738.080	349.351
738.208	348.845
738.337	338.268
738.465	348.835
738.593	342.072
738.721	336.639
738.849	340.309
738.977	338.072
739.105	336.619
739.233	333.835
739.362	331.990
739.490	331.557
739.618	329.392
739.746	329.773
739.874	328.278
740.002	329.629
740.130	322.969
740.258	327.392
740.387	332.289
740.515	324.660
740.643	326.990
740.771	326.433
740.899	321.948
741.027	320.928
741.155	323.577
741.283	316.711
741.412	320.485
741.540	318.969
741.668	321.474
741.796	316.361
741.924	317.577
742.052	313.938
742.180	313.845
742.308	312.598
742.437	310.495
742.565	308.887
742.693	311.701
742.821	309.845
742.949	306.753
743.077	304.216
743.205	307.402
743.333	298.371
743.462	301.474
743.590	304.598
743.718	299.485
743.846	298.990
743.974	297.567
744.102	296.959
744.230	297.794
744.358	293.598
744.487	300.196
744.615	293.041
744.743	296.536
744.871	292.897
744.999	292.392
745.127	291.031
745.255	286.835
745.383	286.979
745.512	291.278
745.640	289.711
745.768	290.474
745.896	286.680
746.024	283.969
746.152	283.144
746.280	286.918
746.408	282.134
746.537	280.165
746.665	285.701
746.793	285.629
746.921	277.340
747.049	278.402
747.177	278.196
747.305	276.691
747.433	277.433
747.562	275.433
747.690	276.948
747.818	277.670
747.946	274.680
748.074	267.464
748.202	270.670
748.330	263.330
748.458	271.000
748.587	270.588
748.715	267.206
748.843	261.825
748.971	265.392
749.099	264.928
749.227	265.340
749.355	263.443
749.483	267.907
749.612	261.598
749.740	257.979
749.868	262.340
749.996	260.680
750.124	259.423
750.252	260.619
750.380	259.784
750.508	259.371
750.637	253.825
750.765	254.433
750.893	256.031
751.021	252.247
751.149	253.928
751.277	250.711
751.405	249.103
751.533	252.701
751.662	257.948
751.790	249.485
751.918	253.402
752.046	246.907
752.174	247.175
752.302	249.464
752.430	253.948
752.558	246.701
752.687	246.371
752.815	245.763
752.943	242.959
753.071	243.000
753.199	239.814
753.327	238.247
753.455	233.660
753.583	238.660
753.712	237.711
753.840	234.928
753.968	239.237
754.096	231.732
754.224	235.515
754.352	232.711
754.480	233.464
754.608	235.351
754.737	234.216
754.865	232.773
754.993	229.031
755.121	229.351
755.249	230.289
755.377	224.505
755.505	227.247
755.633	230.351
755.762	222.907
755.890	221.866
756.018	218.876
756.146	222.680
756.274	224.887
756.402	221.443
756.530	221.557
756.658	226.629
756.787	214.660
756.915	216.412
757.043	217.412
757.171	220.526
757.299	215.392
757.427	213.526
757.555	214.505
757.683	217.000
757.812	211.278
757.940	214.423
758.068	213.155
758.196	211.155
758.324	214.351
758.452	209.784
758.580	206.320
758.708	213.526
758.837	209.897
758.965	207.381
759.093	204.289
759.221	205.402
759.349	205.474
759.477	206.918
759.605	200.670
759.733	201.247
759.862	207.969
759.990	198.732
760.118	198.876
760.246	196.392
760.374	199.742
760.502	196.680
760.630	197.577
760.758	196.959
760.887	194.918
761.015	192.907
761.143	194.505
761.271	194.546
761.399	193.918
761.527	194.753
761.655	192.546
761.783	193.722
761.912	191.990
762.040	190.680
762.168	190.680
762.296	187.732
762.424	191.010
762.552	186.629
762.680	185.062
762.808	188.237
762.937	186.505
763.065	185.897
763.193	190.103
763.321	185.670
763.449	181.577
763.577	181.103
763.705	186.010
763.833	186.124
763.962	180.608
764.090	183.670
764.218	182.887
764.346	179.186
764.474	178.732
764.602	181.701
764.730	183.268
764.858	181.722
764.987	179.381
765.115	178.928
765.243	178.134
765.371	176.969
765.499	173.216
765.627	174.454
765.755	175.113
765.883	171.866
766.012	174.423
766.140	173.639
766.268	173.856
766.396	173.402
766.524	173.485
766.652	173.485
766.780	171.526
766.908	172.804
767.037	172.598
767.165	169.732
767.293	175.052
767.421	170.856
767.549	169.856
767.677	171.959
767.805	170.794
767.933	169.680
768.062	169.608
768.190	169.753
768.318	169.546
768.446	167.052
768.574	169.598
768.702	166.918
768.830	169.670
768.958	167.299
769.087	166.474
769.215	168.485
769.343	165.619
769.471	167.784
769.599	166.701
769.727	166.113
769.855	162.536
769.983	161.278
770.112	162.897
770.240	165.268
770.368	164.711
770.496	164.258
770.624	164.134
770.752	166.814
770.880	162.454
771.008	163.010
771.137	161.969
771.265	161.515
771.393	159.763
771.521	161.247
771.649	161.041
771.777	157.309
771.905	160.608
772.033	162.371
772.162	160.557
772.290	159.485
772.418	158.959
772.546	156.753
772.674	160.588
772.802	157.124
772.930	157.732
773.058	156.639
773.187	156.557
773.315	158.990
773.443	152.113
773.571	155.711
773.699	153.691
773.827	152.897
773.955	154.887
774.083	159.557
774.212	156.423
774.340	156.485
774.468	152.897
774.596	155.577
774.724	152.649
774.852	152.165
774.980	152.423
775.108	152.577
775.237	151.134
775.365	149.227
775.493	153.216
775.621	152.495
775.749	151.485
775.877	149.536
776.005	151.732
776.133	151.010
776.262	152.134
776.390	149.371
776.518	151.216
776.646	151.237
776.774	147.887
776.902	148.371
777.030	146.588
777.158	149.330
777.287	148.031
777.415	147.567
777.543	147.557
777.671	148.134
777.799	147.433
777.927	150.619
778.055	145.701
778.183	147.485
778.312	145.206
778.440	148.670
778.568	145.278
778.696	143.567
778.824	149.247
778.952	145.371
779.080	141.814
779.208	143.505
779.337	142.969
779.465	142.784
779.593	145.299
779.721	144.794
779.849	141.567
779.977	143.443
780.105	142.567
780.233	141.144
780.362	141.196
780.490	140.742
780.618	143.536
780.746	139.247
780.874	141.443
781.002	139.186
781.130	142.237
781.258	138.649
781.387	142.206
781.515	138.423
781.643	137.103
781.771	140.701
781.899	137.412
782.027	138.670
782.155	137.093
782.283	139.629
782.412	139.052
782.540	137.773
782.668	135.969
782.796	137.464
782.924	138.598
783.052	135.732
783.180	135.825
783.308	135.309
783.437	136.567
783.565	136.557
783.693	134.701
783.821	135.722
783.949	133.546
784.077	135.268
784.205	136.495
784.333	135.732
784.462	133.918
784.590	136.701
784.718	132.412
784.846	133.866
784.974	133.361
785.102	134.907
785.230	135.536
785.358	132.381
785.487	132.536
785.615	131.423
785.743	132.351
785.871	131.526
785.999	134.546
786.127	132.402
786.255	131.340
786.383	134.577
786.512	131.938
786.640	132.845
786.768	131.722
786.896	129.526
787.024	132.433
787.152	128.351
787.280	131.402
787.408	132.299
787.537	131.093
787.665	129.072
787.793	129.598
787.921	130.711
788.049	129.680
788.177	131.062
788.305	127.485
788.433	129.876
788.562	126.474
788.690	127.062
788.818	127.773
788.946	128.907
789.074	126.990
789.202	129.330
789.330	127.134
789.458	131.485
789.587	127.732
789.715	127.299
789.843	125.464
789.971	128.505
790.099	126.567
790.227	124.186
790.355	126.464
790.483	128.103
790.612	126.330
790.740	128.031
790.868	127.608
790.996	126.536
791.124	125.773
791.252	125.753
791.380	127.072
791.508	123.722
791.637	127.474
791.765	124.557
791.893	121.649
792.021	124.412
792.149	124.629
792.277	123.608
792.405	127.041
792.533	123.887
792.662	122.794
792.790	127.495
792.918	126.608
793.046	123.856
793.174	124.866
793.302	122.619
793.430	123.784
793.558	125.732
793.687	121.577
793.815	122.887
793.943	123.103
794.071	121.113
794.199	120.773
794.327	120.959
794.455	121.619
794.583	120.165
794.712	123.021
794.840	119.856
794.968	121.866
795.096	119.979
795.224	120.856
795.352	121.010
795.480	120.072
795.608	120.485
795.737	119.124
795.865	120.196
795.993	119.649
796.121	119.227
796.249	119.010
796.377	118.144
796.505	119.670
796.633	124.000
796.762	120.103
796.890	120.876
797.018	120.072
797.146	118.979
797.274	117.979
797.402	117.979
797.530	118.309
797.658	117.814
797.787	119.103
797.915	118.691
798.043	117.608
798.171	118.649
798.299	116.237
798.427	118.763
798.555	115.753
798.683	117.546
798.812	117.309
798.940	115.773
799.068	115.856
799.196	116.577
799.324	114.093
799.452	117.206
799.580	115.082
799.708	116.495
799.837	115.227
799.965	115.103
800.093	115.825
800.221	116.567
800.349	116.165
800.477	114.907
800.605	115.041
800.733	116.155
800.862	116.835
800.990	115.278
801.118	113.845
801.246	112.969
801.374	113.216
801.502	114.948
801.630	113.031
801.758	114.536
801.887	112.814
802.015	111.588
802.143	112.433
802.271	114.763
802.399	114.969
802.527	114.546
802.655	112.526
802.783	111.732
802.912	113.557
803.040	112.887
803.168	111.784
803.296	111.443
803.424	110.753
803.552	111.711
803.680	111.619
803.808	112.526
803.937	111.515
804.065	112.093
804.193	111.072
804.321	112.072
804.449	111.237
804.577	110.423
804.705	111.392
804.833	110.289
804.962	109.918
805.090	109.371
805.218	110.711
805.346	111.835
805.474	110.887
805.602	112.103
805.730	110.680
805.858	112.629
805.987	110.835
806.115	111.433
806.243	111.536
806.371	110.309
806.499	110.856
806.627	109.639
806.755	110.340
806.883	111.361
807.012	109.876
807.140	110.351
807.268	108.577
807.396	111.247
807.524	110.000
807.652	109.402
807.780	112.381
807.908	108.577
808.037	108.299
808.165	109.351
808.293	109.536
808.421	108.165
808.549	109.907
808.677	108.134
808.805	108.722
808.933	109.052
809.062	109.021
809.190	108.216
809.318	109.289
809.446	108.031
809.574	108.742
809.702	108.711
809.830	107.928
809.958	107.567
810.087	107.866
810.215	109.361
810.343	109.515
810.471	108.072
810.599	108.804
810.727	109.526
810.855	108.381
810.983	109.309
811.112	109.412
811.240	106.928
811.368	107.464
811.496	108.619
811.624	109.371
811.752	107.227
811.880	108.144
812.008	107.557
812.137	108.010
812.265	107.536
812.393	107.495
812.521	106.969
812.649	106.567
812.777	107.464
812.905	107.175
813.033	106.443
813.162	106.103
813.290	107.330
813.418	107.103
813.546	107.402
813.674	107.619
813.802	106.031
813.930	106.144
814.058	106.330
814.187	106.979
814.315	106.722
814.443	106.392
814.571	105.495
814.699	106.670
814.827	108.402
814.955	107.216
815.083	106.546
815.212	105.866
815.340	105.763
815.468	105.144
815.596	105.495
815.724	105.113
815.852	106.763
815.980	105.649
816.108	106.443
816.237	104.948
816.365	106.062
816.493	106.485
816.621	106.113
816.749	106.433
816.877	106.876
817.005	106.227
817.133	106.876
817.262	107.577
817.390	106.443
817.518	106.216
817.646	104.392
817.774	104.866
817.902	106.216
818.030	105.474
818.158	107.134
818.287	104.918
818.415	104.742
818.543	105.134
818.671	105.784
818.799	105.278
818.927	105.330
819.055	104.598
819.183	105.299
819.312	104.742
819.440	105.330
819.568	104.649
819.696	103.928
819.824	104.505
819.952	103.237
820.080	103.691
820.208	104.649
820.337	105.825
820.465	104.979
820.593	104.000
820.721	105.299
820.849	102.948
820.977	103.000
821.105	103.485
821.233	104.196
821.362	103.742
821.490	104.495
821.618	103.629
821.746	102.567
821.874	102.979
822.002	103.371
822.130	104.361
822.258	103.392
822.387	103.670
822.515	103.485
822.643	104.103
822.771	102.619
822.899	103.206
823.027	103.639
823.155	103.330
823.283	102.381
823.412	103.990
823.540	104.969
823.668	104.134
823.796	103.371
823.924	104.041
824.052	102.577
824.180	101.330
824.308	103.536
824.437	103.381
824.565	102.732
824.693	103.072
824.821	103.928
824.949	104.619
825.077	103.268
825.205	102.474
825.333	103.495
825.462	102.742
825.590	102.330
825.718	101.845
825.846	103.144
825.974	102.536
826.102	103.227
826.230	101.660
826.358	101.598
826.487	101.371
826.615	101.072
826.743	102.887
826.871	103.165
826.999	103.495
827.127	102.732
827.255	102.649
827.383	101.381
827.512	101.464
827.640	103.247
827.768	102.588
827.896	101.887
828.024	100.876
828.152	102.206
828.280	101.814
828.408	101.485
828.537	101.619
828.665	100.474
828.793	101.722
828.921	101.577
829.049	102.732
829.177	101.309
829.305	103.866
829.433	101.763
829.562	100.526
829.690	101.258
829.818	101.443
829.946	101.052
830.074	101.804
830.202	101.856
830.330	100.753
830.458	101.608
830.587	101.309
830.715	101.629
830.843	100.907
830.971	101.433
831.099	100.392
831.227	100.938
831.355	102.361
831.483	102.268
831.612	102.505
831.740	102.505
831.868	102.031
831.996	101.691
832.124	102.588
832.252	101.423
832.380	100.619
832.508	101.247
832.637	100.619
832.765	102.268
832.893	100.052
833.021	100.588
833.149	101.588
833.277	102.289
833.405	102.845
833.533	101.196
833.662	100.680
833.790	101.794
833.918	103.021
834.046	101.392
834.174	101.000
834.302	101.866
834.430	100.701
834.558	101.639
834.687	102.876
834.815	100.639
834.943	99.763
835.071	99.608
835.199	100.990
835.327	100.515
835.455	100.495
835.583	102.928
835.712	102.639
835.840	101.041
835.968	100.691
836.096	101.536
836.224	102.381
836.352	102.660
836.480	101.186
836.608	100.928
836.737	102.371
836.865	101.835
836.993	99.825
837.121	103.052
837.249	102.155
837.377	101.969
837.505	100.186
837.633	101.186
837.762	100.691
837.890	100.495
838.018	98.948
838.146	100.784
838.274	101.247
838.402	102.361
838.530	99.433
838.658	99.907
838.787	99.454
838.915	100.340
839.043	99.969
839.171	100.918
839.299	100.577
839.427	101.371
839.555	101.701
839.683	101.072
839.812	101.175
839.940	100.598
840.068	100.526
840.196	101.155
840.324	100.959
840.452	100.856
840.580	99.959
840.708	101.330
840.837	100.454
840.965	101.639
841.093	100.753
841.221	100.495
841.349	101.907
841.477	101.423
841.605	100.340
841.733	99.629
841.862	101.742
841.990	100.567
842.118	101.433
842.246	100.113
842.374	100.588
842.502	100.392
842.630	100.402
842.758	99.577
842.887	99.887
843.015	99.804
843.143	100.938
843.271	101.423
843.399	100.474
843.527	99.732
843.655	100.515
843.783	99.814
843.912	100.639
844.040	100.464
844.168	102.134
844.296	101.113
844.424	101.186
844.552	101.237
844.680	100.186
844.808	101.155
844.937	101.175
845.065	99.505
845.193	101.608
845.321	101.010
845.449	100.340
845.577	99.907
845.705	100.454
845.833	102.124
845.962	99.598
846.090	98.887
846.218	100.041
846.346	100.371
846.474	99.670
846.602	100.433
846.730	100.175
846.858	99.948
846.987	98.773
847.115	100.237
847.243	100.773
847.371	100.588
847.499	99.175
847.627	100.103
847.755	99.464
847.883	98.237
848.012	99.546
848.140	100.010
848.268	99.351
848.396	100.237
848.524	101.753
848.652	99.990
848.780	99.835
848.908	101.485
849.037	99.763
849.165	100.062
849.293	100.557
849.421	100.670
849.549	99.340
849.677	99.639
849.805	100.227
849.933	100.691
850.062	100.567
850.190	98.443
850.318	98.773
850.446	99.907
850.574	99.959
850.702	100.062
850.830	99.804
850.958	99.567
851.087	100.186
851.215	100.660
851.343	99.866
851.471	99.309
851.599	100.371
851.727	99.804
851.855	99.969
851.983	100.155
852.112	101.062
852.240	99.866
852.368	99.897
852.496	99.959
852.624	99.010
852.752	97.845
852.880	100.186
853.008	99.299
853.137	100.320
853.265	100.041
853.393	100.557
853.521	99.505
853.649	99.979
853.777	98.412
853.905	100.000
854.033	98.670
854.162	99.371
854.290	99.330
854.418	99.670
854.546	98.887
854.674	100.021
854.802	97.856
854.930	98.608
855.058	98.041
855.187	99.608
855.315	98.773
855.443	100.216
855.571	99.763
855.699	101.423
855.827	98.113
855.955	99.485
856.083	99.588
856.212	100.454
856.340	100.351
856.468	99.052
856.596	98.814
856.724	98.794
856.852	100.371
856.980	99.701
857.108	100.588
857.237	99.237
857.365	98.113
857.493	100.887
857.621	99.443
857.749	98.557
857.877	99.196
858.005	101.268
858.133	98.515
858.262	98.887
858.390	100.711
858.518	99.021
858.646	100.732
858.774	100.526
858.902	99.485
859.030	99.165
859.158	98.660
859.287	99.608
859.415	98.784
859.543	98.876
859.671	100.639
859.799	99.825
859.927	98.711
860.055	100.938
860.183	101.505
860.312	100.103
860.440	98.134
860.568	100.381
860.696	99.794
860.824	100.711
860.952	99.814
861.080	99.691
861.208	100.000
861.337	100.227
861.465	99.454
861.593	99.897
861.721	99.619
861.849	98.216
861.977	98.113
862.105	100.649
862.233	99.660
862.362	99.928
862.490	99.546
862.618	100.010
862.746	98.907
862.874	99.753
863.002	99.454
863.130	99.082
863.258	99.773
863.387	100.093
863.515	100.608
863.643	99.680
863.771	99.711
863.899	100.021
864.027	101.897
864.155	100.340
864.283	98.938
864.412	101.031
864.540	100.577
864.668	97.784
864.796	100.546
864.924	100.825
865.052	99.041
865.180	99.392
865.308	99.392
865.437	98.433
865.565	99.041
865.693	99.155
865.821	99.753
865.949	100.691
866.077	101.062
866.205	98.825
866.333	98.990
866.462	99.753
866.590	99.588
866.718	99.505
866.846	101.021
866.974	100.175
867.102	99.124
867.230	97.794
867.358	100.361
867.487	99.175
867.615	99.021
867.743	99.351
867.871	100.794
867.999	100.866
868.127	99.557
868.255	100.557
868.383	100.814
868.512	100.649
868.640	99.742
868.768	101.062
868.896	99.247
869.024	99.835
869.152	99.443
869.280	100.711
869.408	101.196
869.537	100.680
869.665	98.526
869.793	99.392
869.921	99.072
870.049	100.485
870.177	101.010
870.305	100.619
870.433	101.093
870.562	100.660
870.690	99.887
870.818	100.186
870.946	100.155
871.074	99.526
871.202	97.866
871.330	99.649
871.458	100.309
871.587	99.979
871.715	98.845
871.843	101.351
871.971	100.588
872.099	97.918
872.227	98.536
872.355	99.103
872.483	99.443
872.612	100.588
872.740	99.567
872.868	100.186
872.996	100.134
873.124	99.990
873.252	100.144
873.380	99.454
873.508	100.031
873.637	100.763
873.765	98.969
873.893	99.784
874.021	100.619
874.149	99.546
874.277	100.464
874.405	100.835
874.533	99.691
874.662	98.423
874.790	98.619
874.918	100.784
875.046	99.990
875.174	99.082
875.302	99.876
875.430	99.938
875.558	99.443
875.687	99.021
875.815	100.804
875.943	99.629
876.071	100.959
876.199	102.639
876.327	100.082
876.455	100.887
876.583	99.474
876.712	100.443
876.840	98.155
876.968	101.268
877.096	100.536
877.224	100.330
877.352	100.773
877.480	99.526
877.608	100.660
877.737	99.773
877.865	99.402
877.993	99.485
878.121	100.330
878.249	101.412
878.377	99.753
878.505	100.577
878.633	100.485
878.762	100.711
878.890	100.041
879.018	100.309
879.146	99.299
879.274	101.041
879.402	100.938
879.530	100.753
879.658	101.588
879.787	100.031
879.915	99.495
880.043	99.969
880.171	100.814
880.299	99.825
880.427	100.289
880.555	100.381
880.683	100.392
880.812	99.825
880.940	99.258
881.068	100.103
881.196	99.907
881.324	100.010
881.452	99.495
881.580	99.722
881.708	99.330
881.837	100.144
881.965	99.330
882.093	99.278
882.221	99.144
882.349	99.784
882.477	100.557
882.605	101.052
882.733	100.670
882.862	101.289
882.990	101.711
883.118	101.134
883.246	100.237
883.374	100.268
883.502	99.649
883.630	102.258
883.758	100.629
883.887	99.918
884.015	101.093
884.143	101.660
884.271	100.670
884.399	100.412
884.527	100.237
884.655	98.887
884.783	101.701
884.912	100.990
885.040	100.144
885.168	98.753
885.296	99.866
885.424	100.443
885.552	100.206
885.680	99.186
885.808	100.392
885.937	102.392
886.065	99.619
886.193	99.526
886.321	101.979
886.449	100.856
886.577	100.165
886.705	100.103
886.833	101.010
886.962	101.299
887.090	99.835
887.218	99.918
887.346	98.784
887.474	101.124
887.602	100.495
887.730	99.598
887.858	99.773
887.987	100.763
888.115	100.918
888.243	100.856
888.371	101.381
888.499	100.433
888.627	99.866
888.755	100.938
888.883	101.175
889.012	100.330
889.140	99.608
889.268	99.268
889.396	100.392
889.524	100.938
889.652	100.887
889.780	100.454
889.908	99.804
890.037	99.361
890.165	99.928
890.293	100.557
890.421	101.010
890.549	99.835
890.677	99.598
890.805	99.351
890.933	100.186
891.062	99.392
891.190	100.588
891.318	101.371
891.446	101.546
891.574	98.948
891.702	99.103
891.830	100.062
891.958	100.113
892.087	101.330
892.215	102.052
892.343	100.186
892.471	99.742
892.599	100.495
892.727	101.124
892.855	100.711
892.983	99.186
893.112	100.361
893.240	101.814
893.368	100.773
893.496	100.763
893.624	100.402
893.752	100.804
893.880	99.237
894.008	99.041
894.137	100.165
894.265	100.907
894.393	100.526
894.521	100.237
894.649	100.505
894.777	100.082
894.905	100.381
895.033	102.381
895.162	101.124
895.290	100.340
895.418	101.268
895.546	102.031
895.674	99.247
895.802	99.113
895.930	99.021
896.058	100.010
896.187	100.299
896.315	100.794
896.443	99.660
896.571	100.897
896.699	101.165
896.827	100.577
896.955	100.639
897.083	100.526
897.212	101.887
897.340	100.371
897.468	99.835
897.596	99.711
897.724	99.701
897.852	100.753
897.980	100.938
898.108	99.268
898.237	99.175
898.365	99.938
898.493	101.361
898.621	100.010
898.749	101.557
898.877	101.299
899.005	100.093
899.133	100.598
899.262	100.072
899.390	99.216
899.518	100.103
899.646	99.598
899.774	100.876
899.902	100.010
900.030	101.093
900.158	99.732
900.287	101.186
900.415	101.763
900.543	99.691
900.671	101.247
900.799	100.598
900.927	100.979
901.055	100.340
901.183	100.742
901.312	100.753
901.440	100.526
901.568	101.103
901.696	99.454
901.824	99.629
901.952	100.629
902.080	100.134
902.208	100.515
902.337	101.680
902.465	101.381
902.593	101.567
902.721	101.515
902.849	101.186
902.977	100.825
903.105	100.701
903.233	101.052
903.362	102.031
903.490	99.804
903.618	99.598
903.746	99.546
903.874	101.216
904.002	100.938
904.130	102.021
904.258	100.247
904.387	100.990
904.515	101.103
904.643	102.031
904.771	101.835
904.899	100.443
905.027	100.691
905.155	99.495
905.283	99.639
905.412	100.175
905.540	100.443
905.668	100.381
905.796	99.474
905.924	100.619
906.052	100.711
906.180	100.835
906.308	99.155
906.437	98.381
906.565	99.330
906.693	100.052
906.821	98.979
906.949	101.041
907.077	99.969
907.205	101.103
907.333	100.186
907.462	101.196
907.590	101.196
907.718	100.021
907.846	100.557
907.974	101.237
908.102	100.031
908.230	99.144
908.358	99.134
908.487	99.423
908.615	100.010
908.743	99.784
908.871	102.041
908.999	100.392
909.127	100.619
909.255	99.866
909.383	99.619
909.512	101.175
909.640	101.856
909.768	101.990
909.896	102.454
910.024	101.340
910.152	100.814
910.280	100.000
910.408	101.072
910.537	102.804
910.665	101.309
910.793	101.093
910.921	100.649
911.049	99.763
911.177	101.041
911.305	100.897
911.433	102.392
911.562	100.959
911.690	100.639
911.818	100.289
911.946	101.907
912.074	101.124
912.202	100.464
912.330	99.021
912.458	101.794
912.587	100.969
912.715	100.351
912.843	100.876
912.971	101.608
913.099	101.113
913.227	101.474
913.355	101.031
913.483	100.021
913.612	100.856
913.740	102.000
913.868	100.464
