90_80_wo_Pol_at_750.00nm_cut_at_1179.00Y_01.dat
03.07.2023
11:25:47
cut middle at Y: 1179.00
top cursor: 1231 down cursor: 1127 mean of: 104 lines , 2560 datapoints
wavelength(nm)	intensity[arb. units]
585.996	24443.942
586.124	24027.308
586.252	24040.250
586.380	24110.192
586.508	24202.183
586.637	24326.106
586.765	24360.971
586.893	24403.702
587.021	24458.394
587.149	24524.885
587.277	24596.596
587.405	24600.779
587.533	24730.942
587.662	24734.250
587.790	24735.635
587.918	24749.231
588.046	24736.788
588.174	24789.894
588.302	24856.298
588.430	24848.817
588.558	24846.769
588.687	24873.000
588.815	24950.558
588.943	24866.481
589.071	24855.058
589.199	24951.385
589.327	24919.500
589.455	24976.471
589.583	24885.442
589.712	24952.058
589.840	24865.596
589.968	24969.760
590.096	25028.894
590.224	25025.731
590.352	25076.817
590.480	25024.558
590.608	24996.510
590.737	24986.779
590.865	25073.375
590.993	24997.192
591.121	24984.635
591.249	25005.702
591.377	25063.846
591.505	25086.846
591.633	25052.433
591.762	25077.635
591.890	25165.663
592.018	25180.202
592.146	25213.875
592.274	25112.019
592.402	25224.029
592.530	25359.000
592.658	25303.952
592.787	25332.721
592.915	25449.413
593.043	25309.163
593.171	25449.490
593.299	25430.885
593.427	25440.548
593.555	25519.288
593.683	25529.615
593.812	25567.365
593.940	25624.865
594.068	25688.904
594.196	25704.635
594.324	25743.750
594.452	25948.654
594.580	25883.279
594.708	25981.904
594.837	26049.346
594.965	26160.942
595.093	26166.644
595.221	26349.510
595.349	26296.202
595.477	26310.692
595.605	26429.596
595.733	26481.808
595.862	26418.933
595.990	26518.808
596.118	26657.519
596.246	26664.298
596.374	26680.952
596.502	26767.087
596.630	26754.558
596.758	26766.413
596.887	26890.779
597.015	26894.087
597.143	26918.577
597.271	26932.817
597.399	27047.952
597.527	27014.606
597.655	27045.923
597.783	27083.346
597.912	27120.346
598.040	27126.990
598.168	27119.817
598.296	27059.875
598.424	27284.923
598.552	27087.144
598.680	27131.192
598.808	27305.346
598.937	27176.788
599.065	27195.202
599.193	27279.798
599.321	27270.154
599.449	27245.356
599.577	27194.577
599.705	27223.346
599.833	27181.913
599.962	27154.865
600.090	27187.538
600.218	27150.981
600.346	27211.942
600.474	27212.567
600.602	27197.904
600.730	27223.423
600.858	27279.260
600.987	27384.346
601.115	27272.346
601.243	27324.731
601.371	27407.337
601.499	27408.260
601.627	27439.298
601.755	27449.433
601.883	27464.356
602.012	27397.837
602.140	27510.971
602.268	27551.038
602.396	27719.760
602.524	27699.529
602.652	27863.000
602.780	27841.577
602.908	27940.702
603.037	28064.875
603.165	28099.788
603.293	28202.529
603.421	28210.202
603.549	28344.356
603.677	28354.923
603.805	28492.606
603.933	28563.433
604.062	28766.298
604.190	28822.779
604.318	28902.317
604.446	28908.875
604.574	29014.000
604.702	29092.144
604.830	29124.077
604.958	29210.731
605.087	29350.702
605.215	29569.712
605.343	29665.192
605.471	29663.375
605.599	29724.202
605.727	29899.644
605.855	29961.904
605.983	30048.673
606.112	30154.250
606.240	30145.538
606.368	30219.673
606.496	30287.087
606.624	30379.250
606.752	30415.394
606.880	30497.913
607.008	30562.375
607.137	30582.317
607.265	30701.673
607.393	30736.240
607.521	30806.202
607.649	30769.683
607.777	30746.356
607.905	30837.538
608.033	30817.202
608.162	30775.721
608.290	30776.115
608.418	30938.183
608.546	30919.019
608.674	30974.106
608.802	30864.010
608.930	30915.269
609.058	30944.875
609.187	30859.192
609.315	30879.385
609.443	30903.298
609.571	30975.663
609.699	30896.327
609.827	30907.163
609.955	30945.500
610.083	30874.385
610.212	30858.971
610.340	30820.962
610.468	30918.510
610.596	30839.635
610.724	30865.327
610.852	30920.702
610.980	30935.981
611.108	30873.587
611.237	30871.173
611.365	30921.038
611.493	30841.933
611.621	30904.240
611.749	30990.096
611.877	30975.163
612.005	30992.327
612.133	31052.442
612.262	31113.529
612.390	31217.856
612.518	31260.817
612.646	31283.558
612.774	31408.154
612.902	31344.048
613.030	31440.942
613.158	31391.154
613.287	31552.077
613.415	31469.096
613.543	31587.365
613.671	31600.154
613.799	31731.596
613.927	31777.538
614.055	31851.029
614.183	31924.894
614.312	31934.663
614.440	32116.192
614.568	32139.923
614.696	32260.490
614.824	32305.183
614.952	32380.731
615.080	32456.365
615.208	32565.308
615.337	32681.058
615.465	32637.327
615.593	32818.087
615.721	32787.221
615.849	32959.433
615.977	32978.654
616.105	33076.000
616.233	33128.567
616.362	33278.587
616.490	33301.740
616.618	33410.500
616.746	33568.990
616.874	33597.413
617.002	33613.750
617.130	33718.952
617.258	33711.577
617.387	33753.606
617.515	33865.721
617.643	33862.587
617.771	33932.462
617.899	33915.779
618.027	34056.231
618.155	34078.269
618.283	34123.356
618.412	34209.490
618.540	34281.308
618.668	34313.913
618.796	34295.933
618.924	34280.346
619.052	34339.779
619.180	34347.673
619.308	34292.865
619.437	34351.760
619.565	34346.606
619.693	34418.990
619.821	34441.019
619.949	34396.827
620.077	34480.702
620.205	34479.635
620.333	34507.317
620.462	34551.904
620.590	34558.462
620.718	34555.452
620.846	34628.962
620.974	34596.471
621.102	34700.481
621.230	34657.760
621.358	34762.288
621.487	34630.221
621.615	34680.058
621.743	34621.760
621.871	34645.019
621.999	34614.240
622.127	34649.288
622.255	34608.712
622.383	34599.029
622.512	34661.048
622.640	34621.510
622.768	34708.519
622.896	34696.567
623.024	34750.808
623.152	34680.942
623.280	34813.529
623.408	34779.740
623.537	34839.462
623.665	34782.192
623.793	34857.183
623.921	34828.942
624.049	34843.317
624.177	34777.606
624.305	34788.404
624.433	34800.567
624.562	34825.788
624.690	34949.087
624.818	34781.269
624.946	34714.692
625.074	34794.962
625.202	34816.760
625.330	34857.769
625.458	34940.577
625.587	34865.606
625.715	34924.673
625.843	34887.038
625.971	34990.856
626.099	34930.606
626.227	34959.663
626.355	34885.010
626.483	34935.577
626.612	35002.827
626.740	35138.000
626.868	35065.087
626.996	35125.519
627.124	35138.231
627.252	35125.154
627.380	35156.904
627.508	35131.519
627.637	35131.096
627.765	35267.115
627.893	35278.596
628.021	35353.096
628.149	35236.250
628.277	35365.548
628.405	35362.519
628.533	35335.615
628.662	35390.750
628.790	35530.260
628.918	35498.615
629.046	35699.029
629.174	35513.596
629.302	35615.721
629.430	35608.471
629.558	35692.490
629.687	35731.519
629.815	35781.394
629.943	35895.394
630.071	35899.971
630.199	35908.654
630.327	36019.404
630.455	36040.404
630.583	36037.317
630.712	36099.952
630.840	36106.817
630.968	36164.519
631.096	36229.837
631.224	36269.038
631.352	36397.183
631.480	36412.654
631.608	36578.558
631.737	36446.577
631.865	36514.827
631.993	36559.942
632.121	36707.087
632.249	36644.538
632.377	36607.962
632.505	36700.875
632.633	36820.962
632.762	36709.221
632.890	36733.433
633.018	36690.990
633.146	36649.942
633.274	36657.952
633.402	36724.183
633.530	36739.490
633.658	36707.019
633.787	36758.413
633.915	36696.760
634.043	36766.337
634.171	36794.404
634.299	36712.721
634.427	36724.625
634.555	36870.394
634.683	36757.221
634.812	36663.510
634.940	36642.317
635.068	36635.683
635.196	36636.067
635.324	36625.125
635.452	36601.615
635.580	36624.625
635.708	36481.615
635.837	36484.798
635.965	36381.962
636.093	36391.135
636.221	36261.817
636.349	36194.144
636.477	36142.327
636.605	36184.462
636.733	36140.356
636.862	36045.019
636.990	35973.673
637.118	35876.317
637.246	35843.856
637.374	35969.952
637.502	35724.817
637.630	35676.423
637.758	35637.337
637.887	35552.740
638.015	35594.163
638.143	35475.394
638.271	35331.356
638.399	35368.490
638.527	35269.683
638.655	35262.077
638.783	35229.567
638.912	35158.712
639.040	34990.019
639.168	34981.019
639.296	34883.981
639.424	35017.721
639.552	34840.654
639.680	34915.192
639.808	34794.663
639.937	34691.548
640.065	34713.692
640.193	34691.317
640.321	34798.135
640.449	34740.558
640.577	34634.798
640.705	34600.712
640.833	34547.260
640.962	34607.904
641.090	34551.827
641.218	34498.808
641.346	34614.635
641.474	34529.904
641.602	34506.731
641.730	34445.413
641.858	34436.490
641.987	34399.356
642.115	34560.490
642.243	34375.933
642.371	34536.010
642.499	34373.798
642.627	34457.163
642.755	34408.673
642.883	34377.519
643.012	34361.865
643.140	34403.462
643.268	34378.135
643.396	34358.125
643.524	34354.202
643.652	34415.288
643.780	34324.462
643.908	34329.577
644.037	34415.490
644.165	34409.788
644.293	34474.683
644.421	34298.096
644.549	34280.625
644.677	34325.144
644.805	34269.365
644.933	34228.154
645.062	34327.154
645.190	34420.423
645.318	34287.538
645.446	34199.740
645.574	34194.000
645.702	34223.288
645.830	34233.490
645.958	34115.413
646.087	34108.894
646.215	34090.837
646.343	34091.490
646.471	34230.423
646.599	34020.298
646.727	34055.106
646.855	33980.231
646.983	33987.567
647.112	33998.019
647.240	33904.048
647.368	33899.154
647.496	33882.577
647.624	33824.404
647.752	33775.452
647.880	33744.404
648.008	33705.096
648.137	33753.000
648.265	33664.096
648.393	33727.240
648.521	33587.000
648.649	33642.625
648.777	33517.760
648.905	33428.279
649.033	33484.019
649.162	33209.760
649.290	33126.221
649.418	33112.750
649.546	33215.702
649.674	33043.817
649.802	33001.942
649.930	32867.308
650.058	32837.058
650.187	32812.538
650.315	32689.885
650.443	32620.269
650.571	32494.827
650.699	32433.654
650.827	32436.019
650.955	32282.779
651.083	32337.067
651.212	32227.346
651.340	32105.462
651.468	32040.337
651.596	31967.933
651.724	31980.644
651.852	31903.356
651.980	31860.673
652.108	31710.077
652.237	31717.067
652.365	31528.452
652.493	31526.144
652.621	31457.587
652.749	31412.115
652.877	31325.942
653.005	31336.837
653.133	31222.760
653.262	31095.808
653.390	31028.308
653.518	31129.317
653.646	30949.702
653.774	30856.683
653.902	30889.779
654.030	30827.788
654.158	30706.106
654.287	30739.231
654.415	30563.721
654.543	30655.356
654.671	30484.971
654.799	30436.740
654.927	30377.894
655.055	30309.885
655.183	30213.827
655.312	30242.615
655.440	30111.019
655.568	30119.606
655.696	30025.192
655.824	29960.721
655.952	29923.279
656.080	29798.740
656.208	29781.837
656.337	29769.942
656.465	29922.433
656.593	29659.288
656.721	29649.808
656.849	29633.183
656.977	29392.087
657.105	29350.452
657.233	29402.981
657.362	29451.481
657.490	29318.375
657.618	29221.990
657.746	29155.740
657.874	28943.250
658.002	28899.519
658.130	28732.663
658.258	28722.452
658.387	28603.500
658.515	28578.413
658.643	28532.750
658.771	28550.308
658.899	28419.048
659.027	28377.308
659.155	28272.558
659.283	28180.702
659.412	28134.106
659.540	28117.317
659.668	28092.337
659.796	28119.212
659.924	28030.529
660.052	28111.462
660.180	28028.279
660.308	28091.885
660.437	27974.846
660.565	27809.885
660.693	27652.269
660.821	27787.490
660.949	27533.144
661.077	27574.567
661.205	27654.260
661.333	27455.692
661.462	27348.769
661.590	27401.894
661.718	27301.394
661.846	27278.481
661.974	27145.510
662.102	27135.000
662.230	27038.558
662.358	26890.385
662.487	26969.673
662.615	26871.135
662.743	26795.471
662.871	26782.981
662.999	26646.231
663.127	26601.010
663.255	26548.375
663.383	26586.135
663.512	26377.538
663.640	26419.654
663.768	26382.817
663.896	26316.702
664.024	26261.846
664.152	26197.356
664.280	26224.865
664.408	26083.010
664.537	26029.279
664.665	26031.269
664.793	25977.308
664.921	25894.885
665.049	25914.923
665.177	25788.212
665.305	25820.404
665.433	25750.913
665.562	25817.337
665.690	25666.356
665.818	25740.769
665.946	25526.096
666.074	25466.048
666.202	25438.404
666.330	25367.981
666.458	25645.308
666.587	25309.731
666.715	25266.712
666.843	25189.615
666.971	25092.712
667.099	25094.260
667.227	25114.721
667.355	25079.192
667.483	24955.865
667.612	24986.452
667.740	24880.490
667.868	24820.625
667.996	24768.702
668.124	24828.567
668.252	24815.038
668.380	24627.481
668.508	24638.885
668.637	24514.740
668.765	24499.567
668.893	24475.346
669.021	24375.587
669.149	24352.298
669.277	24249.587
669.405	24340.048
669.533	24256.635
669.662	24145.587
669.790	24095.087
669.918	24075.769
670.046	24145.442
670.174	23847.510
670.302	23844.260
670.430	23737.856
670.558	23774.731
670.687	23806.096
670.815	23598.808
670.943	23631.567
671.071	23489.231
671.199	23392.394
671.327	23381.058
671.455	23405.788
671.583	23239.683
671.712	23228.933
671.840	23218.000
671.968	23288.298
672.096	23193.452
672.224	22995.260
672.352	22946.798
672.480	22803.894
672.608	22790.183
672.737	22689.692
672.865	22646.154
672.993	22625.817
673.121	22521.952
673.249	22454.702
673.377	22345.712
673.505	22296.942
673.633	22336.298
673.762	22191.327
673.890	22182.490
674.018	22122.981
674.146	21999.115
674.274	22014.760
674.402	21939.115
674.530	21865.260
674.658	21725.394
674.787	21639.798
674.915	21772.827
675.043	21569.269
675.171	21501.173
675.299	21435.923
675.427	21298.683
675.555	21295.702
675.683	21228.519
675.812	21177.721
675.940	21100.269
676.068	20965.837
676.196	21023.510
676.324	20880.606
676.452	20815.067
676.580	20731.731
676.708	20665.221
676.837	20554.558
676.965	20646.240
677.093	20664.615
677.221	20427.154
677.349	20339.481
677.477	20338.087
677.605	20223.385
677.733	20167.144
677.862	20118.048
677.990	20036.548
678.118	20047.385
678.246	19933.173
678.374	19936.221
678.502	19770.740
678.630	19705.231
678.758	19679.173
678.887	19723.433
679.015	19487.087
679.143	19450.163
679.271	19403.010
679.399	19328.135
679.527	19248.942
679.655	19308.346
679.783	19161.712
679.912	19108.635
680.040	19244.779
680.168	18996.865
680.296	18948.894
680.424	18907.635
680.552	18837.510
680.680	18755.923
680.808	18715.923
680.937	18655.490
681.065	18672.394
681.193	18557.115
681.321	18455.231
681.449	18483.442
681.577	18431.077
681.705	18385.125
681.833	18333.894
681.962	18245.635
682.090	18184.538
682.218	18153.673
682.346	18138.731
682.474	18032.885
682.602	17999.654
682.730	18021.683
682.858	17864.240
682.987	17841.010
683.115	17855.567
683.243	17802.000
683.371	17749.452
683.499	17690.452
683.627	17650.942
683.755	17632.952
683.883	17570.019
684.012	17515.250
684.140	17456.577
684.268	17448.433
684.396	17454.154
684.524	17368.837
684.652	17351.115
684.780	17336.837
684.908	17278.683
685.037	17261.067
685.165	17166.452
685.293	17171.500
685.421	17110.010
685.549	17053.144
685.677	16953.923
685.805	17000.933
685.933	16905.202
686.062	16858.269
686.190	16808.452
686.318	16796.298
686.446	16703.731
686.574	16644.788
686.702	16661.798
686.830	16583.894
686.958	16637.221
687.087	16518.010
687.215	16489.087
687.343	16465.798
687.471	16584.250
687.599	16284.865
687.727	16262.394
687.855	16196.615
687.983	16155.375
688.112	16195.769
688.240	16138.250
688.368	16080.106
688.496	16030.327
688.624	15936.673
688.752	16066.115
688.880	15899.615
689.008	15824.067
689.137	15814.048
689.265	15707.923
689.393	15684.385
689.521	15680.000
689.649	15690.990
689.777	15589.163
689.905	15635.038
690.033	15456.923
690.162	15428.885
690.290	15455.471
690.418	15322.115
690.546	15383.683
690.674	15339.240
690.802	15265.750
690.930	15226.067
691.058	15152.875
691.187	15066.885
691.315	15009.231
691.443	14996.212
691.571	14963.048
691.699	14943.365
691.827	14851.394
691.955	14815.106
692.083	14767.971
692.212	14744.394
692.340	14654.760
692.468	14680.510
692.596	14630.625
692.724	14581.375
692.852	14568.798
692.980	14525.240
693.108	14545.933
693.237	14385.067
693.365	14341.971
693.493	14281.019
693.621	14271.740
693.749	14150.913
693.877	14185.904
694.005	14064.058
694.133	14010.827
694.262	14060.202
694.390	13886.365
694.518	13897.433
694.646	13867.962
694.774	13741.288
694.902	13729.769
695.030	13680.058
695.158	13610.644
695.287	13584.577
695.415	13542.125
695.543	13494.740
695.671	13430.798
695.799	13499.750
695.927	13357.990
696.055	13327.404
696.183	13241.673
696.312	13359.327
696.440	13206.538
696.568	13201.077
696.696	13013.760
696.824	12950.000
696.952	12920.019
697.080	12915.663
697.208	12806.933
697.337	12771.808
697.465	12719.010
697.593	12647.981
697.721	12764.202
697.849	12573.337
697.977	12615.144
698.105	12634.856
698.233	12512.567
698.362	12422.308
698.490	12503.413
698.618	12314.837
698.746	12270.202
698.874	12322.942
699.002	12245.538
699.130	12218.298
699.258	12131.769
699.387	12029.760
699.515	12046.356
699.643	12044.000
699.771	12060.808
699.899	11900.837
700.027	11843.981
700.155	11868.779
700.283	11713.077
700.412	11733.769
700.540	11727.202
700.668	11717.144
700.796	11585.087
700.924	11600.885
701.052	11589.375
701.180	11543.683
701.308	11435.279
701.437	11382.356
701.565	11342.971
701.693	11351.933
701.821	11496.577
701.949	11248.683
702.077	11222.462
702.205	11272.760
702.333	11133.606
702.462	11063.317
702.590	11103.827
702.718	10971.202
702.846	11113.990
702.974	10885.625
703.102	10895.596
703.230	10884.058
703.358	10754.394
703.487	10730.346
703.615	10691.606
703.743	10658.635
703.871	10650.673
703.999	10557.058
704.127	10517.250
704.255	10463.962
704.383	10468.558
704.512	10491.154
704.640	10424.058
704.768	10429.721
704.896	10292.365
705.024	10189.471
705.152	10211.000
705.280	10245.548
705.408	10073.606
705.537	10050.019
705.665	10047.933
705.793	9987.538
705.921	9950.298
706.049	9853.760
706.177	9894.298
706.305	9784.240
706.433	9802.788
706.562	9748.635
706.690	9691.875
706.818	9684.442
706.946	9583.413
707.074	9536.990
707.202	9483.779
707.330	9436.077
707.458	9427.375
707.587	9374.587
707.715	9371.673
707.843	9346.510
707.971	9349.183
708.099	9211.250
708.227	9181.087
708.355	9146.106
708.483	9103.885
708.612	9061.702
708.740	9017.500
708.868	8957.856
708.996	8980.183
709.124	8985.010
709.252	8897.115
709.380	8894.404
709.508	8815.462
709.637	8825.471
709.765	8750.856
709.893	8791.644
710.021	8694.288
710.149	8731.721
710.277	8595.692
710.405	8588.462
710.533	8548.837
710.662	8501.442
710.790	8618.279
710.918	8450.913
711.046	8469.183
711.174	8399.913
711.302	8416.885
711.430	8332.212
711.558	8350.606
711.687	8273.279
711.815	8227.827
711.943	8187.163
712.071	8164.337
712.199	8176.375
712.327	8216.817
712.455	8055.808
712.583	8223.404
712.712	8062.942
712.840	8085.519
712.968	7965.308
713.096	7922.327
713.224	7883.125
713.352	7869.817
713.480	7788.433
713.608	7777.490
713.737	7751.644
713.865	7783.779
713.993	7736.327
714.121	7710.096
714.249	7625.394
714.377	7605.077
714.505	7582.413
714.633	7586.221
714.762	7512.221
714.890	7520.529
715.018	7459.615
715.146	7508.615
715.274	7399.337
715.402	7389.087
715.530	7349.279
715.658	7399.317
715.787	7306.827
715.915	7398.712
716.043	7232.721
716.171	7373.952
716.299	7191.702
716.427	7248.240
716.555	7145.817
716.683	7127.769
716.812	7090.163
716.940	7067.240
717.068	7010.990
717.196	7173.423
717.324	7016.048
717.452	6953.625
717.580	6997.106
717.708	6865.490
717.837	6883.433
717.965	6893.144
718.093	6837.942
718.221	6851.692
718.349	6873.894
718.477	6740.356
718.605	6827.452
718.733	6730.808
718.862	6749.327
718.990	6620.135
719.118	6685.635
719.246	6604.038
719.374	6575.298
719.502	6607.663
719.630	6671.558
719.758	6482.606
719.887	6445.010
720.015	6473.490
720.143	6457.683
720.271	6359.452
720.399	6422.385
720.527	6334.337
720.655	6414.087
720.783	6283.163
720.912	6227.587
721.040	6244.212
721.168	6259.202
721.296	6145.442
721.424	6139.837
721.552	6105.538
721.680	6172.865
721.808	6100.202
721.937	6088.394
722.065	6101.337
722.193	5995.548
722.321	6015.971
722.449	5992.394
722.577	5893.212
722.705	5876.404
722.833	5905.712
722.962	5878.981
723.090	5836.548
723.218	5804.413
723.346	5824.673
723.474	5751.913
723.602	5710.298
723.730	5678.048
723.858	5664.490
723.987	5668.106
724.115	5642.183
724.243	5636.029
724.371	5550.135
724.499	5538.644
724.627	5547.135
724.755	5486.942
724.883	5575.865
725.012	5610.529
725.140	5443.712
725.268	5379.279
725.396	5460.356
725.524	5511.856
725.652	5344.365
725.780	5437.577
725.908	5285.423
726.037	5276.394
726.165	5275.875
726.293	5207.481
726.421	5201.356
726.549	5208.904
726.677	5190.779
726.805	5101.231
726.933	5144.356
727.062	5082.990
727.190	5043.962
727.318	5018.048
727.446	4998.683
727.574	4944.529
727.702	4953.760
727.830	5007.558
727.958	4928.817
728.087	4965.058
728.215	5003.962
728.343	4876.154
728.471	4897.077
728.599	4960.577
728.727	4797.606
728.855	4772.404
728.983	4748.154
729.112	4747.990
729.240	4736.000
729.368	4696.529
729.496	4719.298
729.624	4683.683
729.752	4599.452
729.880	4612.548
730.008	4589.808
730.137	4583.096
730.265	4543.644
730.393	4715.471
730.521	4656.481
730.649	4486.038
730.777	4419.904
730.905	4453.529
731.033	4376.837
731.162	4487.240
731.290	4445.490
731.418	4376.635
731.546	4337.192
731.674	4326.067
731.802	4279.865
731.930	4378.442
732.058	4397.577
732.187	4286.154
732.315	4269.894
732.443	4359.038
732.571	4262.231
732.699	4210.000
732.827	4256.106
732.955	4155.308
733.083	4134.067
733.212	4156.538
733.340	4099.500
733.468	4082.250
733.596	4069.423
733.724	4079.192
733.852	4048.683
733.980	4053.769
734.108	4196.096
734.237	4019.644
734.365	3990.942
734.493	3973.538
734.621	3934.346
734.749	3934.933
734.877	3948.990
735.005	3948.692
735.133	3856.673
735.262	3960.038
735.390	3840.115
735.518	3850.096
735.646	3890.779
735.774	3898.558
735.902	3897.990
736.030	3779.673
736.158	3764.567
736.287	3799.260
736.415	3743.385
736.543	3753.144
736.671	3689.029
736.799	3730.144
736.927	3692.760
737.055	3777.375
737.183	3647.587
737.312	3639.337
737.440	3624.885
737.568	3691.125
737.696	3647.115
737.824	3608.500
737.952	3825.577
738.080	3526.038
738.208	3596.385
738.337	3537.067
738.465	3532.404
738.593	3492.635
738.721	3508.663
738.849	3542.250
738.977	3471.260
739.105	3445.154
739.233	3447.673
739.362	3404.346
739.490	3401.779
739.618	3433.077
739.746	3417.673
739.874	3371.654
740.002	3371.337
740.130	3348.279
740.258	3304.317
740.387	3362.029
740.515	3295.865
740.643	3298.721
740.771	3345.471
740.899	3241.250
741.027	3216.019
741.155	3199.298
741.283	3185.346
741.412	3293.750
741.540	3217.625
741.668	3180.510
741.796	3233.933
741.924	3132.596
742.052	3272.471
742.180	3146.779
742.308	3099.529
742.437	3137.635
742.565	3085.048
742.693	3190.173
742.821	3047.577
742.949	3004.135
743.077	3047.173
743.205	2976.048
743.333	3015.644
743.462	3020.587
743.590	2972.962
743.718	2992.692
743.846	2954.519
743.974	2980.500
744.102	2906.837
744.230	2942.837
744.358	2898.481
744.487	2879.250
744.615	2858.394
744.743	2862.375
744.871	2847.173
744.999	2902.308
745.127	2808.990
745.255	2775.154
745.383	2820.115
745.512	2776.221
745.640	2743.587
745.768	2751.644
745.896	2814.779
746.024	2786.788
746.152	2703.192
746.280	2765.125
746.408	2701.250
746.537	2769.856
746.665	2679.038
746.793	2652.663
746.921	2634.385
747.049	2657.202
747.177	2616.500
747.305	2837.856
747.433	2609.529
747.562	2570.721
747.690	2629.087
747.818	2647.202
747.946	2554.577
748.074	2533.712
748.202	2566.798
748.330	2539.038
748.458	2547.846
748.587	2516.885
748.715	2579.577
748.843	2509.894
748.971	2500.548
749.099	2509.663
749.227	2513.125
749.355	2523.433
749.483	2462.000
749.612	2511.269
749.740	2482.606
749.868	2482.760
749.996	2480.990
750.124	2487.462
750.252	2450.606
750.380	2432.856
750.508	2441.356
750.637	2415.413
750.765	2451.750
750.893	2415.327
751.021	2398.750
751.149	2396.375
751.277	2382.779
751.405	2371.250
751.533	2384.875
751.662	2350.942
751.790	2338.327
751.918	2320.317
752.046	2334.981
752.174	2296.375
752.302	2279.788
752.430	2287.490
752.558	2283.990
752.687	2281.231
752.815	2269.250
752.943	2251.413
753.071	2231.250
753.199	2245.413
753.327	2235.558
753.455	2219.163
753.583	2189.240
753.712	2169.240
753.840	2195.644
753.968	2160.865
754.096	2177.923
754.224	2165.615
754.352	2136.038
754.480	2149.096
754.608	2141.413
754.737	2108.731
754.865	2121.337
754.993	2115.163
755.121	2098.702
755.249	2068.317
755.377	2047.221
755.505	2072.288
755.633	2057.692
755.762	2051.058
755.890	2049.731
756.018	2022.385
756.146	2007.635
756.274	1988.702
756.402	1995.327
756.530	1985.481
756.658	1985.558
756.787	1940.865
756.915	1944.981
757.043	1938.192
757.171	1946.731
757.299	1934.885
757.427	1889.221
757.555	1905.894
757.683	1909.894
757.812	1904.990
757.940	1888.356
758.068	1870.798
758.196	1870.269
758.324	1858.038
758.452	1864.663
758.580	1854.058
758.708	1840.019
758.837	1845.106
758.965	1845.423
759.093	1826.048
759.221	1785.327
759.349	1781.837
759.477	1778.885
759.605	1764.644
759.733	1762.971
759.862	1756.731
759.990	1765.769
760.118	1741.712
760.246	1745.163
760.374	1737.000
760.502	1717.212
760.630	1697.192
760.758	1698.952
760.887	1697.952
761.015	1679.115
761.143	1688.000
761.271	1674.192
761.399	1662.933
761.527	1671.529
761.655	1664.788
761.783	1640.971
761.912	1629.625
762.040	1640.096
762.168	1605.788
762.296	1611.317
762.424	1610.913
762.552	1615.548
762.680	1579.654
762.808	1592.442
762.937	1569.606
763.065	1551.529
763.193	1552.596
763.321	1540.981
763.449	1526.096
763.577	1515.067
763.705	1531.173
763.833	1523.173
763.962	1508.663
764.090	1499.904
764.218	1492.087
764.346	1479.087
764.474	1490.375
764.602	1477.760
764.730	1475.154
764.858	1457.250
764.987	1468.712
765.115	1452.846
765.243	1432.173
765.371	1433.337
765.499	1436.346
765.627	1423.596
765.755	1409.231
765.883	1420.202
766.012	1407.894
766.140	1388.750
766.268	1387.221
766.396	1384.952
766.524	1387.538
766.652	1361.760
766.780	1360.317
766.908	1364.635
767.037	1361.952
767.165	1339.433
767.293	1348.365
767.421	1350.106
767.549	1315.029
767.677	1344.538
767.805	1319.433
767.933	1313.135
768.062	1296.750
768.190	1294.067
768.318	1296.337
768.446	1290.827
768.574	1270.808
768.702	1282.769
768.830	1262.731
768.958	1265.298
769.087	1268.750
769.215	1251.240
769.343	1252.308
769.471	1257.250
769.599	1249.394
769.727	1240.365
769.855	1219.010
769.983	1254.163
770.112	1205.933
770.240	1205.923
770.368	1194.683
770.496	1192.548
770.624	1202.981
770.752	1181.029
770.880	1197.702
771.008	1165.702
771.137	1172.087
771.265	1164.240
771.393	1141.087
771.521	1153.827
771.649	1157.923
771.777	1183.913
771.905	1184.385
772.033	1175.538
772.162	1128.933
772.290	1135.788
772.418	1132.625
772.546	1111.856
772.674	1130.356
772.802	1105.413
772.930	1116.375
773.058	1103.135
773.187	1096.125
773.315	1094.788
773.443	1090.808
773.571	1087.942
773.699	1083.240
773.827	1085.125
773.955	1093.712
774.083	1073.240
774.212	1065.788
774.340	1059.356
774.468	1044.788
774.596	1044.606
774.724	1068.067
774.852	1048.606
774.980	1037.856
775.108	1028.769
775.237	1014.269
775.365	1018.404
775.493	1021.135
775.621	1012.077
775.749	1013.510
775.877	1019.933
776.005	1004.885
776.133	1000.760
776.262	999.029
776.390	996.433
776.518	974.019
776.646	988.548
776.774	982.913
776.902	966.183
777.030	968.904
777.158	965.087
777.287	975.558
777.415	953.894
777.543	964.231
777.671	951.212
777.799	951.202
777.927	943.942
778.055	943.163
778.183	936.529
778.312	937.529
778.440	935.981
778.568	945.000
778.696	942.865
778.824	934.356
778.952	931.654
779.080	910.154
779.208	907.192
779.337	909.740
779.465	912.356
779.593	898.875
779.721	900.308
779.849	896.548
779.977	892.087
780.105	890.442
780.233	879.183
780.362	871.913
780.490	865.875
780.618	872.990
780.746	860.817
780.874	868.981
781.002	873.673
781.130	861.058
781.258	846.692
781.387	858.394
781.515	849.317
781.643	839.577
781.771	844.904
781.899	852.250
782.027	832.250
782.155	828.779
782.283	828.087
782.412	840.702
782.540	830.423
782.668	819.250
782.796	825.558
782.924	825.827
783.052	819.250
783.180	800.712
783.308	806.317
783.437	791.471
783.565	807.817
783.693	798.692
783.821	806.635
783.949	796.317
784.077	794.558
784.205	785.510
784.333	783.519
784.462	784.288
784.590	778.519
784.718	759.923
784.846	769.365
784.974	780.548
785.102	762.760
785.230	767.356
785.358	753.673
785.487	760.875
785.615	750.298
785.743	748.452
785.871	748.106
785.999	745.481
786.127	747.635
786.255	736.192
786.383	735.279
786.512	737.769
786.640	726.125
786.768	715.433
786.896	720.192
787.024	720.654
787.152	712.721
787.280	729.788
787.408	711.087
787.537	726.654
787.665	721.769
787.793	701.808
787.921	699.702
788.049	693.250
788.177	699.519
788.305	691.394
788.433	695.279
788.562	686.962
788.690	677.231
788.818	690.221
788.946	683.788
789.074	676.596
789.202	669.183
789.330	666.798
789.458	676.019
789.587	668.981
789.715	673.154
789.843	675.567
789.971	658.356
790.099	655.298
790.227	656.500
790.355	651.375
790.483	654.942
790.612	654.202
790.740	653.346
790.868	647.519
790.996	653.788
791.124	652.500
791.252	650.452
791.380	634.327
791.508	637.125
791.637	636.308
791.765	624.183
791.893	626.423
792.021	629.702
792.149	621.481
792.277	622.423
792.405	609.981
792.533	618.702
792.662	614.404
792.790	611.519
792.918	625.356
793.046	606.356
793.174	611.808
793.302	604.250
793.430	594.875
793.558	607.250
793.687	594.962
793.815	597.587
793.943	602.529
794.071	588.144
794.199	588.096
794.327	584.519
794.455	596.452
794.583	583.577
794.712	576.096
794.840	581.433
794.968	580.135
795.096	588.462
795.224	559.904
795.352	608.798
795.480	562.500
795.608	561.788
795.737	556.462
795.865	558.865
795.993	556.817
796.121	550.000
796.249	547.567
796.377	554.885
796.505	555.740
796.633	550.962
796.762	545.798
796.890	544.942
797.018	545.837
797.146	551.250
797.274	540.212
797.402	528.856
797.530	529.942
797.658	534.500
797.787	548.654
797.915	533.115
798.043	518.269
798.171	531.394
798.299	511.490
798.427	531.077
798.555	531.135
798.683	522.962
798.812	540.567
798.940	561.663
799.068	541.596
799.196	514.279
799.324	513.087
799.452	502.356
799.580	506.288
799.708	500.760
799.837	502.606
799.965	492.673
800.093	494.663
800.221	493.933
800.349	490.356
800.477	489.375
800.605	481.231
800.733	499.798
800.862	486.760
800.990	483.183
801.118	482.173
801.246	488.808
801.374	481.346
801.502	478.990
801.630	473.692
801.758	479.442
801.887	461.538
802.015	472.721
802.143	457.683
802.271	461.442
802.399	457.788
802.527	453.760
802.655	459.702
802.783	459.779
802.912	454.490
803.040	452.442
803.168	448.298
803.296	453.163
803.424	444.712
803.552	450.288
803.680	448.404
803.808	447.279
803.937	439.433
804.065	436.904
804.193	446.663
804.321	455.673
804.449	447.048
804.577	436.942
804.705	460.442
804.833	441.673
804.962	429.846
805.090	433.298
805.218	429.865
805.346	420.481
805.474	434.942
805.602	427.760
805.730	437.067
805.858	414.740
805.987	416.846
806.115	415.923
806.243	426.779
806.371	420.913
806.499	413.577
806.627	407.731
806.755	414.394
806.883	414.644
807.012	411.010
807.140	416.519
807.268	400.058
807.396	405.596
807.524	403.529
807.652	410.433
807.780	404.942
807.908	404.260
808.037	410.298
808.165	407.365
808.293	393.356
808.421	395.365
808.549	395.885
808.677	395.567
808.805	403.115
808.933	388.625
809.062	388.269
809.190	405.308
809.318	396.952
809.446	382.010
809.574	396.317
809.702	382.913
809.830	375.913
809.958	391.673
810.087	384.519
810.215	377.260
810.343	383.923
810.471	379.394
810.599	370.125
810.727	380.817
810.855	370.971
810.983	381.144
811.112	375.673
811.240	369.279
811.368	369.865
811.496	377.115
811.624	370.779
811.752	366.519
811.880	376.442
812.008	372.865
812.137	378.240
812.265	365.740
812.393	367.548
812.521	354.538
812.649	361.212
812.777	351.750
812.905	365.490
813.033	372.673
813.162	353.288
813.290	352.202
813.418	354.971
813.546	352.231
813.674	352.096
813.802	350.481
813.930	347.692
814.058	343.702
814.187	350.702
814.315	348.962
814.443	341.837
814.571	348.058
814.699	333.077
814.827	343.740
814.955	348.587
815.083	337.385
815.212	344.702
815.340	333.260
815.468	345.212
815.596	333.567
815.724	335.644
815.852	345.962
815.980	334.654
816.108	334.529
816.237	336.942
816.365	342.913
816.493	331.375
816.621	342.135
816.749	321.750
816.877	392.096
817.005	343.462
817.133	333.385
817.262	331.202
817.390	319.212
817.518	336.587
817.646	316.615
817.774	315.904
817.902	314.327
818.030	318.692
818.158	328.106
818.287	316.952
818.415	317.654
818.543	318.779
818.671	319.663
818.799	314.490
818.927	310.875
819.055	341.250
819.183	319.433
819.312	326.490
819.440	312.202
819.568	304.288
819.696	308.385
819.824	316.010
819.952	313.212
820.080	309.760
820.208	306.894
820.337	312.115
820.465	301.500
820.593	308.356
820.721	304.644
820.849	301.365
820.977	300.375
821.105	304.048
821.233	296.923
821.362	307.115
821.490	297.846
821.618	303.442
821.746	312.423
821.874	300.904
822.002	290.923
822.130	296.529
822.258	297.000
822.387	295.750
822.515	299.077
822.643	296.625
822.771	287.644
822.899	298.817
823.027	287.587
823.155	295.452
823.283	306.240
823.412	297.865
823.540	287.510
823.668	284.269
823.796	288.356
823.924	288.692
824.052	291.356
824.180	292.663
824.308	284.904
824.437	297.413
824.565	292.471
824.693	279.817
824.821	280.615
824.949	283.298
825.077	282.269
825.205	275.346
825.333	281.183
825.462	287.606
825.590	275.548
825.718	272.490
825.846	282.212
825.974	277.096
826.102	279.952
826.230	277.317
826.358	283.308
826.487	283.298
826.615	276.567
826.743	266.000
826.871	281.240
826.999	269.183
827.127	276.894
827.255	276.433
827.383	270.885
827.512	268.048
827.640	280.279
827.768	293.250
827.896	267.048
828.024	275.413
828.152	267.462
828.280	272.923
828.408	264.635
828.537	274.433
828.665	267.279
828.793	269.240
828.921	268.519
829.049	266.798
829.177	267.125
829.305	265.904
829.433	265.721
829.562	266.250
829.690	264.029
829.818	269.683
829.946	262.442
830.074	261.346
830.202	258.106
830.330	264.029
830.458	250.856
830.587	266.029
830.715	257.144
830.843	251.635
830.971	258.298
831.099	264.010
831.227	286.769
831.355	258.135
831.483	256.510
831.612	254.519
831.740	256.567
831.868	256.904
831.996	260.750
832.124	256.769
832.252	263.337
832.380	254.192
832.508	256.221
832.637	253.558
832.765	260.875
832.893	256.760
833.021	248.865
833.149	250.087
833.277	253.192
833.405	257.731
833.533	247.394
833.662	252.385
833.790	246.019
833.918	253.173
834.046	243.865
834.174	245.500
834.302	253.317
834.430	244.192
834.558	245.635
834.687	249.837
834.815	249.837
834.943	240.500
835.071	247.365
835.199	250.519
835.327	243.856
835.455	248.779
835.583	241.962
835.712	240.740
835.840	249.365
835.968	242.462
836.096	245.644
836.224	242.471
836.352	247.913
836.480	237.298
836.608	239.413
836.737	245.298
836.865	241.740
836.993	247.962
837.121	249.385
837.249	245.529
837.377	233.808
837.505	230.750
837.633	237.548
837.762	241.500
837.890	238.567
838.018	236.846
838.146	239.192
838.274	235.692
838.402	235.808
838.530	250.337
838.658	239.250
838.787	243.529
838.915	229.702
839.043	247.404
839.171	233.317
839.299	234.952
839.427	257.779
839.555	243.644
839.683	231.548
839.812	234.067
839.940	230.490
840.068	230.567
840.196	252.596
840.324	249.365
840.452	240.250
840.580	224.933
840.708	223.577
840.837	236.750
840.965	233.567
841.093	221.385
841.221	229.962
841.349	228.962
841.477	221.365
841.605	225.558
841.733	231.500
841.862	233.298
841.990	232.125
842.118	226.798
842.246	224.962
842.374	216.413
842.502	237.375
842.630	229.000
842.758	222.635
842.887	234.433
843.015	241.538
843.143	222.442
843.271	223.808
843.399	227.683
843.527	227.298
843.655	222.702
843.783	221.538
843.912	218.875
844.040	221.798
844.168	223.067
844.296	235.885
844.424	230.625
844.552	228.067
844.680	225.654
844.808	221.269
844.937	219.798
845.065	218.740
845.193	238.192
845.321	226.125
845.449	231.837
845.577	226.817
845.705	217.875
845.833	223.327
845.962	227.375
846.090	222.231
846.218	230.308
846.346	227.010
846.474	220.865
846.602	217.856
846.730	220.769
846.858	218.663
846.987	216.885
847.115	223.952
847.243	228.817
847.371	214.500
847.499	214.567
847.627	217.913
847.755	213.894
847.883	224.356
848.012	226.260
848.140	211.510
848.268	215.077
848.396	220.183
848.524	226.875
848.652	215.269
848.780	211.615
848.908	218.894
849.037	218.240
849.165	211.500
849.293	219.962
849.421	212.817
849.549	215.769
849.677	212.442
849.805	226.337
849.933	213.692
850.062	218.837
850.190	215.269
850.318	213.346
850.446	214.779
850.574	216.096
850.702	212.106
850.830	209.240
850.958	210.519
851.087	219.577
851.215	204.837
851.343	209.808
851.471	216.625
851.599	215.692
851.727	222.827
851.855	210.558
851.983	218.308
852.112	209.683
852.240	217.519
852.368	220.798
852.496	213.029
852.624	214.750
852.752	219.894
852.880	217.625
853.008	214.154
853.137	213.779
853.265	215.817
853.393	211.462
853.521	207.135
853.649	216.663
853.777	207.981
853.905	205.990
854.033	207.327
854.162	208.500
854.290	210.375
854.418	224.846
854.546	235.731
854.674	225.846
854.802	214.317
854.930	203.837
855.058	215.183
855.187	203.587
855.315	235.779
855.443	206.750
855.571	204.269
855.699	215.606
855.827	203.913
855.955	203.490
856.083	206.048
856.212	205.452
856.340	209.404
856.468	208.913
856.596	207.817
856.724	212.308
856.852	223.683
856.980	202.385
857.108	197.673
857.237	196.317
857.365	215.654
857.493	210.865
857.621	205.740
857.749	201.087
857.877	201.288
858.005	201.452
858.133	205.212
858.262	205.529
858.390	203.577
858.518	200.144
858.646	210.260
858.774	197.202
858.902	202.913
859.030	206.221
859.158	205.933
859.287	201.990
859.415	207.731
859.543	203.587
859.671	204.462
859.799	210.298
859.927	199.135
860.055	198.990
860.183	195.096
860.312	199.827
860.440	202.519
860.568	195.558
860.696	209.067
860.824	214.163
860.952	196.077
861.080	202.846
861.208	207.548
861.337	202.904
861.465	211.779
861.593	203.519
861.721	210.125
861.849	209.452
861.977	198.865
862.105	200.202
862.233	199.673
862.362	199.750
862.490	200.231
862.618	203.212
862.746	204.490
862.874	203.029
863.002	202.683
863.130	205.087
863.258	204.423
863.387	206.587
863.515	201.779
863.643	211.019
863.771	199.625
863.899	201.317
864.027	203.769
864.155	223.712
864.283	199.462
864.412	194.433
864.540	202.875
864.668	194.769
864.796	199.115
864.924	199.500
865.052	195.981
865.180	213.971
865.308	199.519
865.437	203.125
865.565	192.106
865.693	195.683
865.821	195.019
865.949	217.933
866.077	204.269
866.205	197.346
866.333	201.760
866.462	192.827
866.590	206.317
866.718	203.481
866.846	189.760
866.974	199.423
867.102	192.837
867.230	203.750
867.358	198.365
867.487	206.490
867.615	214.000
867.743	197.490
867.871	206.663
867.999	200.413
868.127	208.087
868.255	214.135
868.383	190.240
868.512	200.231
868.640	196.731
868.768	195.048
868.896	207.721
869.024	191.096
869.152	194.346
869.280	196.067
869.408	195.154
869.537	193.288
869.665	193.029
869.793	197.740
869.921	196.981
870.049	190.904
870.177	196.904
870.305	194.394
870.433	195.500
870.562	199.481
870.690	194.106
870.818	201.635
870.946	194.317
871.074	186.788
871.202	195.346
871.330	190.096
871.458	196.462
871.587	196.962
871.715	197.260
871.843	199.144
871.971	200.231
872.099	191.452
872.227	195.067
872.355	193.346
872.483	194.038
872.612	196.500
872.740	192.250
872.868	194.029
872.996	195.087
873.124	203.731
873.252	194.067
873.380	186.375
873.508	200.865
873.637	197.904
873.765	194.260
873.893	188.712
874.021	191.567
874.149	192.673
874.277	194.606
874.405	199.663
874.533	199.587
874.662	192.019
874.790	197.462
874.918	193.154
875.046	196.827
875.174	194.183
875.302	188.654
875.430	189.702
875.558	198.298
875.687	199.625
875.815	194.490
875.943	200.010
876.071	194.615
876.199	196.038
876.327	195.029
876.455	191.615
876.583	186.365
876.712	200.000
876.840	194.529
876.968	198.135
877.096	196.750
877.224	192.942
877.352	187.067
877.480	195.827
877.608	203.923
877.737	198.500
877.865	187.538
877.993	198.154
878.121	197.731
878.249	193.413
878.377	193.663
878.505	199.529
878.633	197.433
878.762	192.760
878.890	192.481
879.018	196.779
879.146	192.490
879.274	220.962
879.402	196.885
879.530	194.731
879.658	193.433
879.787	192.769
879.915	192.038
880.043	188.538
880.171	228.423
880.299	195.327
880.427	198.606
880.555	186.788
880.683	192.981
880.812	194.567
880.940	191.625
881.068	199.183
881.196	190.221
881.324	189.606
881.452	187.750
881.580	196.490
881.708	198.587
881.837	199.346
881.965	193.856
882.093	183.692
882.221	189.510
882.349	185.442
882.477	194.462
882.605	193.971
882.733	199.317
882.862	188.837
882.990	200.635
883.118	197.317
883.246	199.375
883.374	194.625
883.502	197.971
883.630	198.317
883.758	193.077
883.887	194.625
884.015	198.298
884.143	198.327
884.271	193.067
884.399	187.538
884.527	196.000
884.655	189.587
884.783	194.635
884.912	213.798
885.040	198.596
885.168	186.875
885.296	200.663
885.424	189.010
885.552	194.942
885.680	206.087
885.808	200.221
885.937	198.500
886.065	198.933
886.193	193.971
886.321	193.865
886.449	193.702
886.577	188.769
886.705	207.875
886.833	183.029
886.962	196.365
887.090	192.452
887.218	190.173
887.346	191.760
887.474	190.308
887.602	194.308
887.730	184.779
887.858	188.942
887.987	188.510
888.115	195.106
888.243	189.452
888.371	202.750
888.499	190.452
888.627	192.048
888.755	196.971
888.883	188.433
889.012	197.404
889.140	192.000
889.268	195.423
889.396	182.385
889.524	198.356
889.652	181.346
889.780	189.548
889.908	191.019
890.037	198.673
890.165	190.808
890.293	193.529
890.421	193.548
890.549	182.673
890.677	183.212
890.805	193.346
890.933	185.913
891.062	190.519
891.190	195.346
891.318	185.981
891.446	190.308
891.574	182.788
891.702	188.769
891.830	196.394
891.958	200.385
892.087	195.106
892.215	194.683
892.343	195.683
892.471	196.087
892.599	184.327
892.727	194.952
892.855	210.183
892.983	183.260
893.112	188.769
893.240	198.692
893.368	184.962
893.496	200.423
893.624	196.971
893.752	211.721
893.880	194.154
894.008	194.423
894.137	187.769
894.265	193.615
894.393	191.087
894.521	198.183
894.649	193.385
894.777	185.760
894.905	227.317
895.033	189.865
895.162	185.135
895.290	198.885
895.418	190.942
895.546	222.087
895.674	194.221
895.802	229.154
895.930	190.827
896.058	186.433
896.187	191.779
896.315	189.048
896.443	199.712
896.571	211.606
896.699	187.779
896.827	189.663
896.955	186.798
897.083	193.356
897.212	188.471
897.340	189.510
897.468	189.327
897.596	189.567
897.724	189.067
897.852	184.856
897.980	180.125
898.108	197.635
898.237	187.442
898.365	188.212
898.493	192.788
898.621	186.212
898.749	188.404
898.877	191.423
899.005	191.596
899.133	186.923
899.262	201.558
899.390	188.240
899.518	189.721
899.646	185.721
899.774	184.365
899.902	184.856
900.030	198.981
900.158	187.625
900.287	186.356
900.415	183.548
900.543	189.413
900.671	195.327
900.799	183.933
900.927	184.346
901.055	198.365
901.183	195.125
901.312	193.933
901.440	181.019
901.568	184.760
901.696	183.250
901.824	181.375
901.952	184.779
902.080	190.712
902.208	187.452
902.337	192.750
902.465	186.029
902.593	202.106
902.721	210.673
902.849	206.442
902.977	190.894
903.105	186.808
903.233	189.625
903.362	180.481
903.490	192.404
903.618	190.567
903.746	179.423
903.874	190.192
904.002	185.990
904.130	197.971
904.258	178.519
904.387	190.067
904.515	177.808
904.643	189.269
904.771	180.692
904.899	185.663
905.027	188.558
905.155	185.144
905.283	180.471
905.412	198.394
905.540	186.702
905.668	185.365
905.796	187.442
905.924	184.548
906.052	187.183
906.180	191.817
906.308	183.712
906.437	181.846
906.565	188.010
906.693	194.500
906.821	177.221
906.949	182.760
907.077	179.635
907.205	192.356
907.333	176.558
907.462	181.077
907.590	186.058
907.718	180.625
907.846	188.529
907.974	181.154
908.102	184.404
908.230	188.625
908.358	183.240
908.487	181.067
908.615	193.096
908.743	192.769
908.871	183.452
908.999	180.163
909.127	186.231
909.255	193.663
909.383	184.875
909.512	181.058
909.640	195.644
909.768	182.144
909.896	188.856
910.024	189.452
910.152	188.933
910.280	190.423
910.408	181.279
910.537	180.692
910.665	192.125
910.793	188.817
910.921	188.000
911.049	194.519
911.177	194.404
911.305	184.317
911.433	209.519
911.562	188.500
911.690	193.596
911.818	189.317
911.946	184.635
912.074	187.779
912.202	180.183
912.330	200.788
912.458	182.144
912.587	186.692
912.715	190.817
912.843	201.635
912.971	188.962
913.099	204.981
913.227	195.942
913.355	197.644
913.483	202.875
913.612	199.462
913.740	222.529
913.868	193.327
