90_80_0_Pol_at_750.00nm_cut_at_1179.00Y_01.dat
03.07.2023
11:25:18
cut middle at Y: 1179.00
top cursor: 1231 down cursor: 1127 mean of: 104 lines , 2560 datapoints
wavelength(nm)	intensity[arb. units]
585.996	9599.731
586.124	9441.654
586.252	9404.471
586.380	9461.981
586.508	9471.981
586.637	9619.615
586.765	9558.904
586.893	9598.433
587.021	9613.510
587.149	9629.558
587.277	9650.385
587.405	9649.000
587.533	9683.481
587.662	9766.298
587.790	9713.798
587.918	9698.327
588.046	9689.288
588.174	9717.173
588.302	9706.317
588.430	9721.058
588.558	9747.010
588.687	9744.048
588.815	9770.760
588.943	9752.106
589.071	9762.067
589.199	9787.942
589.327	9714.404
589.455	9839.471
589.583	9744.067
589.712	9766.471
589.840	9736.731
589.968	9761.740
590.096	9763.394
590.224	9728.567
590.352	9815.029
590.480	9735.827
590.608	9734.087
590.737	9754.942
590.865	9865.202
590.993	9731.673
591.121	9757.125
591.249	9750.788
591.377	9781.606
591.505	9887.298
591.633	9800.144
591.762	9788.183
591.890	9825.817
592.018	9886.029
592.146	9802.048
592.274	9848.529
592.402	9820.500
592.530	10006.663
592.658	9888.471
592.787	9908.538
592.915	9956.731
593.043	9858.240
593.171	9904.933
593.299	9887.971
593.427	9913.952
593.555	9954.260
593.683	9944.587
593.812	9967.500
593.940	9991.298
594.068	9994.423
594.196	9973.423
594.324	10020.635
594.452	10251.442
594.580	10102.577
594.708	10144.933
594.837	10164.827
594.965	10230.558
595.093	10182.577
595.221	10240.808
595.349	10239.923
595.477	10248.962
595.605	10301.163
595.733	10285.000
595.862	10357.856
595.990	10361.317
596.118	10398.413
596.246	10449.769
596.374	10401.212
596.502	10421.798
596.630	10435.644
596.758	10436.654
596.887	10440.260
597.015	10468.798
597.143	10499.519
597.271	10488.817
597.399	10563.567
597.527	10531.510
597.655	10544.798
597.783	10565.240
597.912	10543.519
598.040	10588.019
598.168	10567.740
598.296	10564.683
598.424	10717.058
598.552	10594.260
598.680	10586.558
598.808	10689.202
598.937	10600.077
599.065	10586.510
599.193	10653.058
599.321	10647.269
599.449	10580.606
599.577	10607.798
599.705	10622.692
599.833	10596.731
599.962	10584.731
600.090	10601.808
600.218	10594.087
600.346	10604.250
600.474	10595.827
600.602	10569.385
600.730	10607.058
600.858	10620.337
600.987	10684.250
601.115	10589.913
601.243	10693.490
601.371	10719.625
601.499	10699.913
601.627	10708.663
601.755	10691.933
601.883	10707.029
602.012	10679.115
602.140	10754.894
602.268	10708.077
602.396	10848.250
602.524	10750.500
602.652	10815.173
602.780	10796.231
602.908	10839.625
603.037	10914.404
603.165	10920.135
603.293	10966.135
603.421	10985.808
603.549	10959.933
603.677	11032.990
603.805	11056.029
603.933	11073.500
604.062	11128.288
604.190	11206.125
604.318	11211.740
604.446	11179.125
604.574	11275.962
604.702	11323.375
604.830	11280.673
604.958	11297.596
605.087	11358.077
605.215	11434.587
605.343	11540.288
605.471	11504.260
605.599	11522.385
605.727	11611.923
605.855	11625.740
605.983	11664.462
606.112	11674.173
606.240	11671.981
606.368	11666.010
606.496	11706.385
606.624	11773.423
606.752	11757.971
606.880	11829.452
607.008	11787.212
607.137	11789.096
607.265	11896.981
607.393	11852.625
607.521	11930.490
607.649	11871.096
607.777	11874.952
607.905	11905.673
608.033	11863.356
608.162	11865.740
608.290	11884.231
608.418	11990.587
608.546	11944.048
608.674	11981.394
608.802	11922.144
608.930	11937.750
609.058	11882.702
609.187	11892.442
609.315	11907.067
609.443	11909.529
609.571	12042.683
609.699	11906.019
609.827	12004.356
609.955	11902.510
610.083	11854.827
610.212	11870.894
610.340	11879.183
610.468	11856.558
610.596	11887.260
610.724	11848.548
610.852	11913.856
610.980	11912.250
611.108	11834.442
611.237	11874.471
611.365	11901.625
611.493	11892.077
611.621	11884.000
611.749	11891.106
611.877	11973.144
612.005	11912.837
612.133	11960.817
612.262	11962.106
612.390	11995.663
612.518	12045.577
612.646	12001.202
612.774	12090.779
612.902	12098.096
613.030	12083.933
613.158	12079.837
613.287	12170.673
613.415	12104.865
613.543	12091.452
613.671	12145.981
613.799	12188.173
613.927	12203.135
614.055	12250.625
614.183	12250.038
614.312	12235.615
614.440	12425.798
614.568	12367.606
614.696	12388.827
614.824	12428.779
614.952	12432.567
615.080	12448.712
615.208	12537.750
615.337	12598.885
615.465	12540.240
615.593	12593.231
615.721	12570.077
615.849	12699.990
615.977	12658.077
616.105	12707.587
616.233	12731.856
616.362	12765.721
616.490	12797.173
616.618	12815.106
616.746	12923.500
616.874	12903.500
617.002	12890.308
617.130	12904.462
617.258	12923.308
617.387	12923.904
617.515	12970.990
617.643	13001.356
617.771	13034.183
617.899	13002.769
618.027	13057.827
618.155	13101.173
618.283	13061.673
618.412	13100.096
618.540	13205.356
618.668	13136.952
618.796	13148.308
618.924	13079.365
619.052	13140.346
619.180	13145.010
619.308	13120.231
619.437	13129.279
619.565	13187.442
619.693	13153.154
619.821	13211.327
619.949	13118.875
620.077	13166.192
620.205	13216.413
620.333	13245.692
620.462	13190.038
620.590	13234.385
620.718	13240.538
620.846	13224.481
620.974	13247.500
621.102	13299.442
621.230	13256.923
621.358	13372.952
621.487	13221.115
621.615	13295.692
621.743	13201.058
621.871	13265.846
621.999	13185.567
622.127	13229.135
622.255	13195.875
622.383	13218.635
622.512	13191.433
622.640	13222.087
622.768	13248.692
622.896	13321.625
623.024	13273.269
623.152	13241.260
623.280	13309.663
623.408	13237.490
623.537	13272.548
623.665	13213.663
623.793	13283.481
623.921	13272.587
624.049	13252.683
624.177	13223.779
624.305	13281.529
624.433	13287.760
624.562	13307.375
624.690	13426.490
624.818	13219.625
624.946	13264.058
625.074	13227.952
625.202	13215.423
625.330	13242.154
625.458	13360.913
625.587	13276.846
625.715	13335.096
625.843	13281.029
625.971	13321.606
626.099	13294.250
626.227	13319.769
626.355	13241.423
626.483	13346.865
626.612	13290.654
626.740	13355.808
626.868	13301.663
626.996	13351.221
627.124	13305.135
627.252	13303.913
627.380	13334.087
627.508	13306.452
627.637	13366.635
627.765	13393.365
627.893	13420.740
628.021	13452.048
628.149	13360.212
628.277	13473.625
628.405	13429.500
628.533	13414.952
628.662	13435.462
628.790	13551.260
628.918	13441.019
629.046	13626.875
629.174	13483.798
629.302	13516.240
629.430	13473.740
629.558	13552.673
629.687	13501.913
629.815	13593.962
629.943	13684.769
630.071	13600.779
630.199	13599.452
630.327	13656.817
630.455	13667.558
630.583	13687.317
630.712	13699.375
630.840	13722.635
630.968	13694.279
631.096	13706.750
631.224	13779.721
631.352	13868.644
631.480	13796.212
631.608	13973.250
631.737	13794.221
631.865	13916.365
631.993	13902.337
632.121	14019.606
632.249	13901.125
632.377	13916.846
632.505	13891.317
632.633	13952.452
632.762	13854.048
632.890	13915.029
633.018	13917.154
633.146	13902.240
633.274	13884.442
633.402	13935.702
633.530	13938.029
633.658	13910.519
633.787	13895.365
633.915	13888.740
634.043	13966.192
634.171	13913.144
634.299	13909.048
634.427	13888.788
634.555	14129.567
634.683	13913.317
634.812	13887.663
634.940	13834.519
635.068	13856.875
635.196	13844.500
635.324	13828.721
635.452	13831.250
635.580	13941.144
635.708	13769.183
635.837	13838.212
635.965	13784.760
636.093	13746.644
636.221	13709.769
636.349	13680.356
636.477	13616.010
636.605	13705.423
636.733	13652.288
636.862	13628.846
636.990	13611.692
637.118	13618.500
637.246	13554.433
637.374	13668.760
637.502	13526.462
637.630	13500.144
637.758	13502.567
637.887	13444.942
638.015	13575.712
638.143	13486.404
638.271	13392.837
638.399	13446.981
638.527	13365.337
638.655	13361.490
638.783	13347.125
638.912	13401.827
639.040	13301.115
639.168	13286.413
639.296	13233.894
639.424	13328.067
639.552	13240.817
639.680	13297.298
639.808	13218.346
639.937	13163.837
640.065	13165.404
640.193	13172.798
640.321	13235.337
640.449	13222.808
640.577	13135.298
640.705	13158.913
640.833	13134.029
640.962	13218.577
641.090	13084.269
641.218	13100.885
641.346	13166.192
641.474	13099.067
641.602	13069.750
641.730	13066.317
641.858	13055.183
641.987	13060.346
642.115	13215.798
642.243	13085.760
642.371	13213.144
642.499	13028.481
642.627	13142.702
642.755	13023.077
642.883	13053.692
643.012	13031.173
643.140	13127.077
643.268	13085.519
643.396	12998.635
643.524	13044.413
643.652	13145.288
643.780	13000.635
643.908	13005.913
644.037	13113.231
644.165	13097.163
644.293	13209.981
644.421	12977.933
644.549	13059.692
644.677	13042.904
644.805	13002.981
644.933	12975.240
645.062	13047.096
645.190	13189.750
645.318	13061.625
645.446	12964.702
645.574	12955.144
645.702	13023.385
645.830	13042.933
645.958	12958.462
646.087	12924.731
646.215	12894.712
646.343	12928.596
646.471	13072.115
646.599	12891.615
646.727	12845.558
646.855	12875.269
646.983	12878.077
647.112	12948.356
647.240	12839.635
647.368	12894.740
647.496	12835.394
647.624	12842.471
647.752	12778.933
647.880	12763.346
648.008	12793.510
648.137	12820.394
648.265	12734.894
648.393	12821.769
648.521	12695.817
648.649	12810.058
648.777	12735.221
648.905	12674.154
649.033	12721.875
649.162	12584.346
649.290	12521.529
649.418	12536.923
649.546	12656.096
649.674	12500.346
649.802	12467.471
649.930	12410.231
650.058	12378.635
650.187	12439.346
650.315	12354.933
650.443	12386.163
650.571	12315.500
650.699	12298.885
650.827	12236.606
650.955	12213.471
651.083	12320.058
651.212	12168.442
651.340	12187.404
651.468	12097.635
651.596	12108.394
651.724	12092.942
651.852	12061.462
651.980	12041.173
652.108	12012.192
652.237	12018.952
652.365	11927.750
652.493	11950.913
652.621	11890.635
652.749	11905.106
652.877	11895.548
653.005	11918.788
653.133	11796.202
653.262	11757.221
653.390	11746.048
653.518	11904.029
653.646	11716.000
653.774	11654.058
653.902	11727.769
654.030	11727.010
654.158	11591.981
654.287	11639.404
654.415	11610.163
654.543	11603.529
654.671	11554.625
654.799	11543.327
654.927	11461.587
655.055	11444.413
655.183	11458.490
655.312	11444.587
655.440	11395.750
655.568	11397.202
655.696	11415.817
655.824	11358.212
655.952	11370.529
656.080	11284.231
656.208	11303.173
656.337	11290.250
656.465	11449.712
656.593	11257.365
656.721	11286.817
656.849	11326.365
656.977	11101.490
657.105	11153.750
657.233	11156.673
657.362	11178.923
657.490	11131.163
657.618	11115.529
657.746	11072.923
657.874	10988.250
658.002	11002.952
658.130	10917.558
658.258	10935.346
658.387	10852.702
658.515	10856.029
658.643	10828.587
658.771	10880.394
658.899	10801.913
659.027	10787.337
659.155	10763.385
659.283	10704.885
659.412	10726.769
659.540	10679.442
659.668	10736.817
659.796	10773.260
659.924	10717.231
660.052	10785.327
660.180	10658.596
660.308	10720.135
660.437	10690.673
660.565	10639.433
660.693	10536.481
660.821	10707.087
660.949	10510.808
661.077	10558.327
661.205	10678.769
661.333	10462.760
661.462	10435.663
661.590	10563.548
661.718	10451.971
661.846	10468.029
661.974	10384.894
662.102	10414.058
662.230	10393.519
662.358	10254.029
662.487	10312.577
662.615	10301.971
662.743	10305.712
662.871	10285.154
662.999	10200.029
663.127	10178.365
663.255	10184.952
663.383	10308.644
663.512	10116.135
663.640	10151.856
663.768	10156.423
663.896	10080.933
664.024	10094.000
664.152	10039.894
664.280	10086.894
664.408	9972.135
664.537	10002.144
664.665	10010.298
664.793	10006.163
664.921	9955.423
665.049	9996.933
665.177	9884.971
665.305	9906.548
665.433	9901.538
665.562	10030.462
665.690	9850.221
665.818	10007.337
665.946	9763.413
666.074	9791.288
666.202	9770.510
666.330	9710.923
666.458	10130.288
666.587	9706.423
666.715	9702.510
666.843	9655.740
666.971	9667.606
667.099	9650.904
667.227	9700.635
667.355	9705.173
667.483	9577.971
667.612	9632.067
667.740	9590.779
667.868	9546.144
667.996	9494.202
668.124	9528.077
668.252	9603.279
668.380	9429.625
668.508	9460.442
668.637	9388.875
668.765	9439.519
668.893	9390.260
669.021	9352.471
669.149	9384.125
669.277	9280.731
669.405	9394.288
669.533	9386.885
669.662	9268.904
669.790	9292.317
669.918	9285.490
670.046	9385.087
670.174	9172.596
670.302	9154.683
670.430	9103.442
670.558	9158.048
670.687	9277.615
670.815	9076.856
670.943	9090.356
671.071	8996.481
671.199	8979.240
671.327	8963.788
671.455	8988.010
671.583	8949.875
671.712	8918.115
671.840	8957.231
671.968	9054.740
672.096	8984.240
672.224	8796.260
672.352	8786.788
672.480	8711.827
672.608	8797.394
672.737	8703.673
672.865	8649.625
672.993	8659.202
673.121	8635.038
673.249	8602.163
673.377	8575.048
673.505	8536.125
673.633	8580.808
673.762	8513.317
673.890	8499.683
674.018	8487.240
674.146	8427.731
674.274	8432.000
674.402	8458.375
674.530	8370.750
674.658	8358.577
674.787	8310.942
674.915	8448.260
675.043	8307.673
675.171	8257.471
675.299	8211.038
675.427	8185.721
675.555	8173.635
675.683	8189.731
675.812	8129.433
675.940	8129.394
676.068	8059.096
676.196	8096.298
676.324	8023.019
676.452	7961.721
676.580	7925.337
676.708	7894.923
676.837	7916.087
676.965	7978.308
677.093	8009.942
677.221	7889.490
677.349	7767.952
677.477	7853.548
677.605	7745.510
677.733	7755.856
677.862	7726.663
677.990	7745.885
678.118	7753.817
678.246	7687.327
678.374	7718.760
678.502	7622.596
678.630	7557.808
678.758	7601.837
678.887	7681.144
679.015	7497.587
679.143	7460.269
679.271	7421.192
679.399	7443.144
679.527	7453.452
679.655	7470.885
679.783	7354.125
679.912	7321.519
680.040	7517.779
680.168	7326.192
680.296	7321.702
680.424	7279.212
680.552	7226.894
680.680	7256.769
680.808	7170.365
680.937	7170.490
681.065	7203.846
681.193	7130.163
681.321	7085.760
681.449	7132.221
681.577	7091.558
681.705	7053.154
681.833	7061.048
681.962	7037.288
682.090	6991.452
682.218	6980.356
682.346	6975.615
682.474	6954.519
682.602	6916.317
682.730	6959.654
682.858	6879.269
682.987	6885.135
683.115	6890.673
683.243	6861.231
683.371	6860.923
683.499	6771.519
683.627	6822.731
683.755	6768.096
683.883	6733.087
684.012	6743.596
684.140	6698.135
684.268	6711.856
684.396	6772.990
684.524	6679.240
684.652	6694.673
684.780	6664.288
684.908	6669.288
685.037	6670.933
685.165	6625.279
685.293	6670.538
685.421	6611.269
685.549	6613.048
685.677	6536.500
685.805	6582.663
685.933	6520.115
686.062	6514.606
686.190	6501.269
686.318	6476.875
686.446	6460.548
686.574	6427.038
686.702	6486.827
686.830	6391.240
686.958	6451.760
687.087	6344.452
687.215	6374.356
687.343	6358.798
687.471	6463.442
687.599	6266.529
687.727	6268.490
687.855	6248.000
687.983	6219.731
688.112	6272.365
688.240	6215.433
688.368	6228.269
688.496	6175.481
688.624	6149.933
688.752	6308.615
688.880	6124.779
689.008	6125.500
689.137	6098.904
689.265	6032.115
689.393	6071.567
689.521	6049.962
689.649	6117.654
689.777	6044.577
689.905	6092.865
690.033	5959.942
690.162	5929.760
690.290	5961.038
690.418	5914.096
690.546	5972.346
690.674	5936.346
690.802	5953.115
690.930	5878.990
691.058	5878.096
691.187	5815.327
691.315	5804.212
691.443	5799.038
691.571	5785.433
691.699	5758.596
691.827	5728.250
691.955	5714.385
692.083	5700.067
692.212	5703.115
692.340	5679.260
692.468	5711.462
692.596	5663.346
692.724	5617.625
692.852	5654.212
692.980	5631.740
693.108	5673.750
693.237	5568.346
693.365	5526.606
693.493	5512.298
693.621	5517.875
693.749	5458.048
693.877	5544.173
694.005	5403.019
694.133	5400.885
694.262	5469.971
694.390	5353.298
694.518	5371.740
694.646	5366.356
694.774	5295.279
694.902	5308.769
695.030	5298.529
695.158	5284.260
695.287	5255.260
695.415	5235.587
695.543	5239.413
695.671	5170.471
695.799	5287.894
695.927	5154.231
696.055	5174.904
696.183	5109.740
696.312	5283.750
696.440	5098.452
696.568	5133.394
696.696	4997.106
696.824	5013.365
696.952	4997.875
697.080	4989.279
697.208	4918.163
697.337	4940.856
697.465	4923.087
697.593	4874.692
697.721	4990.683
697.849	4844.452
697.977	4891.288
698.105	4919.625
698.233	4857.038
698.362	4783.779
698.490	4890.096
698.618	4730.269
698.746	4722.596
698.874	4796.221
699.002	4738.952
699.130	4728.644
699.258	4685.837
699.387	4608.798
699.515	4659.731
699.643	4682.971
699.771	4751.058
699.899	4591.471
700.027	4535.712
700.155	4608.731
700.283	4504.663
700.412	4527.933
700.540	4557.856
700.668	4567.163
700.796	4469.385
700.924	4498.548
701.052	4487.202
701.180	4481.587
701.308	4402.250
701.437	4361.154
701.565	4376.500
701.693	4411.587
701.821	4527.394
701.949	4301.231
702.077	4311.981
702.205	4387.077
702.333	4290.510
702.462	4240.538
702.590	4317.558
702.718	4213.000
702.846	4382.163
702.974	4177.115
703.102	4180.106
703.230	4198.010
703.358	4159.894
703.487	4138.827
703.615	4111.010
703.743	4103.904
703.871	4064.346
703.999	4058.048
704.127	4038.750
704.255	4005.606
704.383	4041.856
704.512	4074.250
704.640	4027.875
704.768	4070.663
704.896	3939.433
705.024	3903.885
705.152	3909.712
705.280	3951.760
705.408	3873.913
705.537	3858.135
705.665	3854.606
705.793	3840.904
705.921	3833.615
706.049	3787.692
706.177	3821.952
706.305	3741.683
706.433	3799.817
706.562	3766.779
706.690	3741.644
706.818	3736.692
706.946	3695.904
707.074	3648.856
707.202	3627.952
707.330	3639.673
707.458	3625.337
707.587	3579.538
707.715	3633.500
707.843	3612.808
707.971	3617.087
708.099	3541.769
708.227	3546.260
708.355	3532.019
708.483	3506.471
708.612	3508.817
708.740	3473.442
708.868	3462.990
708.996	3518.913
709.124	3500.442
709.252	3454.606
709.380	3451.933
709.508	3368.442
709.637	3436.490
709.765	3378.452
709.893	3423.865
710.021	3347.712
710.149	3432.471
710.277	3328.587
710.405	3323.019
710.533	3299.894
710.662	3308.837
710.790	3382.154
710.918	3247.721
711.046	3304.250
711.174	3249.490
711.302	3274.837
711.430	3232.375
711.558	3252.337
711.687	3225.067
711.815	3165.269
711.943	3146.173
712.071	3166.788
712.199	3169.577
712.327	3209.087
712.455	3110.558
712.583	3261.490
712.712	3126.942
712.840	3152.115
712.968	3090.375
713.096	3078.635
713.224	3046.298
713.352	3058.779
713.480	3000.587
713.608	3003.404
713.737	2967.452
713.865	3028.731
713.993	2999.077
714.121	2989.942
714.249	2943.183
714.377	2925.346
714.505	2936.115
714.633	2938.721
714.762	2907.154
714.890	2913.654
715.018	2887.433
715.146	2912.644
715.274	2850.933
715.402	2857.798
715.530	2844.375
715.658	2860.163
715.787	2831.413
715.915	2921.894
716.043	2822.548
716.171	2933.413
716.299	2757.702
716.427	2849.596
716.555	2746.779
716.683	2744.481
716.812	2725.519
716.940	2740.760
717.068	2682.567
717.196	2857.279
717.324	2710.702
717.452	2686.529
717.580	2734.077
717.708	2656.192
717.837	2658.413
717.965	2698.769
718.093	2635.404
718.221	2683.231
718.349	2703.962
718.477	2594.596
718.605	2699.788
718.733	2604.740
718.862	2638.154
718.990	2571.981
719.118	2633.087
719.246	2558.798
719.374	2540.567
719.502	2594.481
719.630	2676.212
719.758	2530.163
719.887	2498.269
720.015	2525.635
720.143	2571.750
720.271	2477.192
720.399	2519.596
720.527	2480.827
720.655	2555.269
720.783	2455.462
720.912	2455.115
721.040	2456.308
721.168	2480.144
721.296	2425.846
721.424	2443.067
721.552	2429.221
721.680	2453.298
721.808	2434.740
721.937	2416.750
722.065	2427.952
722.193	2413.048
722.321	2414.404
722.449	2405.183
722.577	2369.317
722.705	2372.740
722.833	2376.183
722.962	2366.327
723.090	2354.827
723.218	2331.288
723.346	2340.731
723.474	2329.154
723.602	2305.865
723.730	2307.625
723.858	2303.125
723.987	2307.548
724.115	2302.231
724.243	2317.702
724.371	2260.337
724.499	2272.904
724.627	2243.221
724.755	2257.269
724.883	2248.808
725.012	2253.010
725.140	2227.577
725.268	2216.654
725.396	2180.462
725.524	2205.106
725.652	2164.029
725.780	2174.721
725.908	2175.740
726.037	2145.692
726.165	2147.404
726.293	2131.817
726.421	2119.519
726.549	2119.144
726.677	2095.413
726.805	2090.510
726.933	2087.356
727.062	2076.019
727.190	2068.923
727.318	2057.769
727.446	2057.202
727.574	2039.038
727.702	2019.452
727.830	2037.173
727.958	2030.154
728.087	2023.673
728.215	1996.558
728.343	1990.596
728.471	1978.038
728.599	1982.375
728.727	1965.529
728.855	1973.596
728.983	1935.375
729.112	1934.894
729.240	1924.058
729.368	1933.587
729.496	1919.356
729.624	1915.413
729.752	1917.413
729.880	1907.183
730.008	1902.981
730.137	1898.221
730.265	1882.500
730.393	1872.750
730.521	1860.587
730.649	1853.596
730.777	1843.817
730.905	1829.365
731.033	1801.202
731.162	1819.394
731.290	1827.856
731.418	1815.212
731.546	1804.856
731.674	1793.250
731.802	1790.010
731.930	1794.644
732.058	1761.827
732.187	1758.702
732.315	1771.067
732.443	1757.519
732.571	1750.731
732.699	1739.865
732.827	1756.827
732.955	1745.346
733.083	1717.808
733.212	1722.058
733.340	1732.798
733.468	1712.038
733.596	1689.154
733.724	1685.288
733.852	1691.115
733.980	1661.019
734.108	1690.481
734.237	1674.010
734.365	1687.490
734.493	1652.548
734.621	1648.221
734.749	1653.817
734.877	1635.519
735.005	1631.404
735.133	1640.644
735.262	1635.202
735.390	1606.202
735.518	1614.106
735.646	1612.231
735.774	1615.942
735.902	1591.990
736.030	1594.327
736.158	1597.327
736.287	1592.510
736.415	1578.567
736.543	1563.529
736.671	1557.000
736.799	1557.952
736.927	1564.740
737.055	1559.154
737.183	1532.269
737.312	1524.933
737.440	1534.779
737.568	1521.596
737.696	1518.865
737.824	1517.269
737.952	1727.067
738.080	1502.654
738.208	1496.933
738.337	1480.038
738.465	1485.163
738.593	1479.750
738.721	1464.654
738.849	1485.702
738.977	1464.144
739.105	1477.048
739.233	1470.519
739.362	1446.029
739.490	1436.163
739.618	1448.327
739.746	1431.548
739.874	1432.721
740.002	1435.077
740.130	1398.769
740.258	1410.183
740.387	1414.298
740.515	1413.606
740.643	1382.115
740.771	1404.846
740.899	1372.269
741.027	1377.096
741.155	1373.000
741.283	1364.817
741.412	1390.885
741.540	1361.308
741.668	1350.788
741.796	1356.548
741.924	1336.567
742.052	1342.731
742.180	1339.183
742.308	1314.115
742.437	1309.923
742.565	1332.529
742.693	1325.654
742.821	1314.750
742.949	1298.413
743.077	1285.317
743.205	1279.798
743.333	1276.750
743.462	1279.548
743.590	1266.798
743.718	1260.952
743.846	1264.067
743.974	1284.760
744.102	1249.250
744.230	1244.135
744.358	1254.221
744.487	1242.654
744.615	1230.625
744.743	1227.740
744.871	1215.990
744.999	1212.481
745.127	1221.933
745.255	1199.250
745.383	1205.606
745.512	1197.096
745.640	1185.481
745.768	1191.577
745.896	1186.904
746.024	1182.721
746.152	1185.596
746.280	1170.231
746.408	1177.663
746.537	1161.231
746.665	1172.385
746.793	1150.875
746.921	1142.221
747.049	1150.769
747.177	1139.106
747.305	1154.990
747.433	1143.394
747.562	1126.548
747.690	1134.615
747.818	1108.538
747.946	1114.163
748.074	1101.817
748.202	1106.442
748.330	1097.529
748.458	1096.644
748.587	1104.163
748.715	1094.740
748.843	1077.558
748.971	1082.865
749.099	1087.250
749.227	1078.298
749.355	1090.510
749.483	1048.327
749.612	1077.808
749.740	1077.154
749.868	1062.269
749.996	1043.048
750.124	1067.471
750.252	1037.452
750.380	1040.144
750.508	1051.817
750.637	1037.452
750.765	1036.567
750.893	1018.558
751.021	1019.702
751.149	1022.019
751.277	1006.548
751.405	999.048
751.533	1015.644
751.662	995.019
751.790	982.077
751.918	997.202
752.046	983.981
752.174	974.067
752.302	977.192
752.430	964.654
752.558	959.500
752.687	974.837
752.815	967.288
752.943	968.721
753.071	948.048
753.199	948.712
753.327	963.394
753.455	934.221
753.583	926.240
753.712	922.654
753.840	943.077
753.968	920.423
754.096	933.115
754.224	925.788
754.352	900.183
754.480	928.269
754.608	902.933
754.737	906.096
754.865	908.673
754.993	910.788
755.121	910.163
755.249	877.683
755.377	864.587
755.505	873.760
755.633	875.385
755.762	866.567
755.890	887.000
756.018	867.125
756.146	861.740
756.274	852.500
756.402	848.663
756.530	867.837
756.658	846.827
756.787	834.279
756.915	836.962
757.043	823.933
757.171	831.548
757.299	836.183
757.427	812.731
757.555	804.154
757.683	817.548
757.812	823.567
757.940	804.538
758.068	805.875
758.196	803.740
758.324	798.346
758.452	805.990
758.580	795.144
758.708	789.615
758.837	806.577
758.965	801.279
759.093	792.106
759.221	772.423
759.349	761.885
759.477	765.596
759.605	758.865
759.733	769.413
759.862	751.952
759.990	756.346
760.118	748.452
760.246	763.125
760.374	763.269
760.502	743.683
760.630	737.394
760.758	729.692
760.887	730.087
761.015	729.231
761.143	731.356
761.271	729.625
761.399	724.913
761.527	727.923
761.655	735.058
761.783	705.452
761.912	709.750
762.040	721.644
762.168	705.375
762.296	696.048
762.424	707.952
762.552	703.183
762.680	677.192
762.808	711.481
762.937	693.183
763.065	684.269
763.193	679.029
763.321	678.413
763.449	663.596
763.577	661.788
763.705	682.404
763.833	670.510
763.962	662.654
764.090	652.519
764.218	663.000
764.346	651.721
764.474	655.952
764.602	655.404
764.730	655.952
764.858	650.115
764.987	646.038
765.115	641.817
765.243	634.692
765.371	632.462
765.499	622.577
765.627	622.885
765.755	626.548
765.883	629.587
766.012	622.279
766.140	620.981
766.268	609.442
766.396	621.596
766.524	615.183
766.652	603.644
766.780	605.846
766.908	604.327
767.037	618.567
767.165	606.990
767.293	604.962
767.421	599.990
767.549	588.317
767.677	605.394
767.805	581.538
767.933	590.471
768.062	579.394
768.190	581.135
768.318	582.269
768.446	576.490
768.574	570.202
768.702	572.827
768.830	567.481
768.958	570.346
769.087	573.269
769.215	567.288
769.343	566.029
769.471	573.221
769.599	556.144
769.727	560.125
769.855	548.798
769.983	578.529
770.112	548.067
770.240	540.125
770.368	538.163
770.496	542.548
770.624	546.058
770.752	526.250
770.880	544.106
771.008	528.173
771.137	526.106
771.265	523.163
771.393	510.587
771.521	521.010
771.649	531.923
771.777	553.990
771.905	575.481
772.033	553.010
772.162	507.010
772.290	517.000
772.418	511.000
772.546	506.567
772.674	505.529
772.802	500.663
772.930	516.115
773.058	505.000
773.187	503.413
773.315	492.346
773.443	498.596
773.571	494.154
773.699	490.144
773.827	501.567
773.955	502.529
774.083	499.433
774.212	483.663
774.340	485.423
774.468	477.452
774.596	481.202
774.724	481.481
774.852	485.567
774.980	470.519
775.108	471.942
775.237	465.721
775.365	465.279
775.493	469.471
775.621	459.067
775.749	467.712
775.877	474.385
776.005	466.971
776.133	456.856
776.262	461.452
776.390	453.952
776.518	446.029
776.646	455.692
776.774	451.365
776.902	447.087
777.030	440.837
777.158	447.731
777.287	453.635
777.415	443.404
777.543	443.971
777.671	441.135
777.799	444.279
777.927	441.452
778.055	437.250
778.183	432.663
778.312	427.538
778.440	433.962
778.568	449.442
778.696	442.144
778.824	430.817
778.952	430.952
779.080	425.481
779.208	422.269
779.337	425.865
779.465	433.058
779.593	422.308
779.721	426.087
779.849	419.827
779.977	415.240
780.105	416.644
780.233	416.279
780.362	418.740
780.490	401.875
780.618	414.933
780.746	403.721
780.874	401.894
781.002	412.173
781.130	406.913
781.258	397.990
781.387	410.394
781.515	404.135
781.643	393.231
781.771	396.635
781.899	405.481
782.027	392.279
782.155	392.067
782.283	392.375
782.412	397.077
782.540	396.750
782.668	392.413
782.796	393.212
782.924	401.058
783.052	397.692
783.180	385.385
783.308	389.404
783.437	387.952
783.565	392.587
783.693	388.000
783.821	385.202
783.949	386.817
784.077	376.413
784.205	378.942
784.333	377.981
784.462	379.875
784.590	369.240
784.718	363.952
784.846	376.981
784.974	389.000
785.102	371.913
785.230	372.856
785.358	361.587
785.487	369.365
785.615	362.375
785.743	368.212
785.871	368.692
785.999	373.615
786.127	368.250
786.255	355.913
786.383	357.798
786.512	359.577
786.640	362.606
786.768	350.663
786.896	350.885
787.024	343.817
787.152	352.721
787.280	368.769
787.408	353.010
787.537	357.587
787.665	363.231
787.793	346.510
787.921	347.635
788.049	339.788
788.177	343.981
788.305	337.692
788.433	346.529
788.562	341.442
788.690	340.067
788.818	344.202
788.946	338.721
789.074	327.769
789.202	331.721
789.330	333.029
789.458	336.077
789.587	330.279
789.715	340.654
789.843	332.837
789.971	334.010
790.099	325.798
790.227	328.442
790.355	330.000
790.483	333.404
790.612	335.038
790.740	330.721
790.868	328.731
790.996	335.106
791.124	337.740
791.252	326.163
791.380	320.058
791.508	324.558
791.637	326.490
791.765	309.817
791.893	318.577
792.021	323.981
792.149	315.481
792.277	315.904
792.405	311.712
792.533	318.596
792.662	312.346
792.790	313.394
792.918	321.192
793.046	312.731
793.174	309.981
793.302	313.856
793.430	304.106
793.558	320.058
793.687	311.096
793.815	302.317
793.943	322.712
794.071	304.106
794.199	305.481
794.327	308.731
794.455	311.587
794.583	306.433
794.712	310.135
794.840	301.490
794.968	307.952
795.096	307.702
795.224	294.135
795.352	332.769
795.480	291.702
795.608	293.500
795.737	291.817
795.865	291.923
795.993	299.510
796.121	291.875
796.249	290.885
796.377	295.000
796.505	291.904
796.633	297.644
796.762	291.519
796.890	286.462
797.018	285.692
797.146	295.510
797.274	292.817
797.402	281.654
797.530	286.750
797.658	281.356
797.787	298.702
797.915	290.856
798.043	281.288
798.171	286.058
798.299	274.577
798.427	286.365
798.555	293.760
798.683	276.788
798.812	307.779
798.940	325.144
799.068	309.288
799.196	284.077
799.324	283.125
799.452	275.500
799.580	275.019
799.708	280.260
799.837	268.692
799.965	269.423
800.093	271.029
800.221	267.942
800.349	271.404
800.477	264.865
800.605	263.135
800.733	275.942
800.862	272.135
800.990	265.144
801.118	269.337
801.246	266.740
801.374	267.779
801.502	264.721
801.630	265.163
801.758	264.202
801.887	260.029
802.015	264.635
802.143	252.327
802.271	263.221
802.399	253.413
802.527	251.913
802.655	260.721
802.783	254.125
802.912	258.087
803.040	252.308
803.168	252.077
803.296	262.731
803.424	249.288
803.552	256.788
803.680	251.173
803.808	253.394
803.937	250.692
804.065	255.827
804.193	254.077
804.321	270.471
804.449	264.654
804.577	252.692
804.705	269.788
804.833	251.250
804.962	246.000
805.090	247.125
805.218	241.250
805.346	247.202
805.474	258.365
805.602	251.125
805.730	259.606
805.858	240.865
805.987	240.760
806.115	241.173
806.243	251.183
806.371	242.971
806.499	239.154
806.627	237.394
806.755	236.788
806.883	244.365
807.012	236.990
807.140	244.529
807.268	229.096
807.396	234.971
807.524	235.010
807.652	243.712
807.780	238.923
807.908	237.942
808.037	251.625
808.165	243.702
808.293	230.519
808.421	234.635
808.549	234.490
808.677	236.788
808.805	247.087
808.933	231.885
809.062	230.808
809.190	243.990
809.318	235.481
809.446	227.144
809.574	240.654
809.702	226.875
809.830	225.529
809.958	237.721
810.087	232.673
810.215	228.135
810.343	236.808
810.471	233.769
810.599	221.202
810.727	231.769
810.855	222.740
810.983	229.067
811.112	226.365
811.240	224.538
811.368	226.125
811.496	230.558
811.624	228.538
811.752	224.596
811.880	238.452
812.008	227.894
812.137	240.942
812.265	222.000
812.393	231.096
812.521	213.769
812.649	225.365
812.777	218.125
812.905	232.808
813.033	234.375
813.162	217.356
813.290	218.173
813.418	221.115
813.546	222.769
813.674	214.683
813.802	219.923
813.930	214.615
814.058	214.481
814.187	219.596
814.315	217.106
814.443	213.721
814.571	217.558
814.699	209.010
814.827	213.894
814.955	222.125
815.083	212.404
815.212	219.529
815.340	209.288
815.468	223.942
815.596	206.192
815.724	213.154
815.852	218.048
815.980	213.827
816.108	210.125
816.237	214.942
816.365	221.154
816.493	211.875
816.621	217.596
816.749	200.808
816.877	269.712
817.005	224.433
817.133	209.663
817.262	212.788
817.390	202.452
817.518	211.817
817.646	200.269
817.774	198.077
817.902	197.048
818.030	200.923
818.158	212.615
818.287	204.269
818.415	205.250
818.543	199.173
818.671	208.260
818.799	201.010
818.927	196.327
819.055	225.769
819.183	205.038
819.312	222.096
819.440	205.212
819.568	195.404
819.696	197.721
819.824	200.529
819.952	199.212
820.080	200.356
820.208	197.952
820.337	203.135
820.465	197.548
820.593	196.606
820.721	200.673
820.849	199.567
820.977	198.490
821.105	195.644
821.233	191.308
821.362	206.087
821.490	191.250
821.618	202.692
821.746	204.721
821.874	197.144
822.002	187.548
822.130	190.760
822.258	197.529
822.387	194.346
822.515	198.837
822.643	196.846
822.771	192.490
822.899	199.010
823.027	189.346
823.155	198.308
823.283	206.750
823.412	203.529
823.540	191.750
823.668	186.125
823.796	192.808
823.924	188.596
824.052	190.981
824.180	194.221
824.308	188.212
824.437	202.625
824.565	191.567
824.693	180.654
824.821	182.010
824.949	190.702
825.077	191.067
825.205	183.231
825.333	192.250
825.462	195.452
825.590	184.577
825.718	186.096
825.846	187.135
825.974	185.683
826.102	184.894
826.230	190.404
826.358	193.038
826.487	186.635
826.615	184.221
826.743	178.010
826.871	192.240
826.999	182.692
827.127	187.904
827.255	187.038
827.383	181.913
827.512	182.721
827.640	188.125
827.768	203.394
827.896	176.827
828.024	187.529
828.152	182.250
828.280	187.298
828.408	180.962
828.537	186.731
828.665	181.404
828.793	185.404
828.921	177.952
829.049	182.500
829.177	180.596
829.305	182.538
829.433	178.327
829.562	180.096
829.690	182.846
829.818	185.856
829.946	178.471
830.074	182.644
830.202	176.462
830.330	186.817
830.458	172.279
830.587	184.337
830.715	176.288
830.843	171.048
830.971	179.798
831.099	178.385
831.227	207.981
831.355	175.365
831.483	178.490
831.612	178.625
831.740	177.327
831.868	178.885
831.996	184.317
832.124	178.548
832.252	186.500
832.380	179.894
832.508	180.971
832.637	177.529
832.765	183.192
832.893	177.529
833.021	176.529
833.149	174.721
833.277	176.317
833.405	183.500
833.533	172.337
833.662	177.115
833.790	173.615
833.918	176.625
834.046	170.731
834.174	173.452
834.302	177.337
834.430	172.808
834.558	174.837
834.687	181.702
834.815	173.760
834.943	175.452
835.071	178.029
835.199	175.490
835.327	173.000
835.455	182.394
835.583	170.817
835.712	170.413
835.840	179.067
835.968	170.712
836.096	179.817
836.224	173.231
836.352	177.548
836.480	170.452
836.608	167.000
836.737	174.567
836.865	167.423
836.993	176.721
837.121	182.385
837.249	180.192
837.377	165.452
837.505	164.375
837.633	173.683
837.762	172.692
837.890	173.308
838.018	170.731
838.146	168.529
838.274	167.260
838.402	170.779
838.530	184.692
838.658	174.663
838.787	179.154
838.915	168.721
839.043	177.500
839.171	169.365
839.299	174.702
839.427	191.663
839.555	176.740
839.683	165.462
839.812	172.356
839.940	164.183
840.068	169.952
840.196	196.644
840.324	189.663
840.452	176.904
840.580	169.096
840.708	162.038
840.837	171.635
840.965	165.202
841.093	164.481
841.221	170.240
841.349	166.846
841.477	162.365
841.605	165.635
841.733	163.077
841.862	173.385
841.990	170.308
842.118	169.288
842.246	168.577
842.374	160.471
842.502	178.240
842.630	165.010
842.758	163.317
842.887	169.125
843.015	182.683
843.143	162.596
843.271	164.933
843.399	165.490
843.527	167.663
843.655	163.635
843.783	164.077
843.912	161.154
844.040	158.875
844.168	166.683
844.296	178.673
844.424	172.558
844.552	172.135
844.680	167.769
844.808	162.644
844.937	166.567
845.065	165.740
845.193	180.625
845.321	165.971
845.449	175.394
845.577	165.000
845.705	163.269
845.833	160.337
845.962	169.702
846.090	164.240
846.218	174.654
846.346	172.221
846.474	164.192
846.602	161.385
846.730	165.952
846.858	164.115
846.987	159.173
847.115	170.173
847.243	173.548
847.371	155.721
847.499	162.606
847.627	164.798
847.755	164.385
847.883	173.038
848.012	174.683
848.140	156.971
848.268	160.990
848.396	165.442
848.524	171.462
848.652	161.731
848.780	158.260
848.908	167.250
849.037	160.894
849.165	157.346
849.293	165.875
849.421	163.356
849.549	167.317
849.677	163.221
849.805	170.096
849.933	163.462
850.062	168.712
850.190	160.481
850.318	157.000
850.446	166.192
850.574	163.394
850.702	160.654
850.830	156.615
850.958	159.817
851.087	166.788
851.215	157.837
851.343	160.135
851.471	161.962
851.599	167.981
851.727	174.433
851.855	164.663
851.983	168.865
852.112	159.010
852.240	170.587
852.368	172.683
852.496	163.212
852.624	163.154
852.752	170.865
852.880	163.750
853.008	164.683
853.137	165.808
853.265	163.856
853.393	165.712
853.521	162.135
853.649	169.317
853.777	160.173
853.905	154.394
854.033	158.048
854.162	154.865
854.290	156.173
854.418	175.894
854.546	186.471
854.674	177.548
854.802	164.500
854.930	155.856
855.058	165.096
855.187	156.567
855.315	189.990
855.443	160.029
855.571	158.490
855.699	169.683
855.827	152.904
855.955	160.077
856.083	158.423
856.212	161.231
856.340	168.433
856.468	163.692
856.596	163.135
856.724	164.875
856.852	174.663
856.980	156.269
857.108	157.452
857.237	155.077
857.365	164.692
857.493	167.702
857.621	161.490
857.749	154.500
857.877	156.423
858.005	158.433
858.133	158.750
858.262	156.904
858.390	156.413
858.518	154.038
858.646	166.712
858.774	155.490
858.902	156.721
859.030	162.683
859.158	165.231
859.287	158.490
859.415	163.144
859.543	157.529
859.671	160.212
859.799	168.923
859.927	156.269
860.055	152.712
860.183	151.625
860.312	155.423
860.440	159.702
860.568	152.673
860.696	168.327
860.824	166.692
860.952	155.808
861.080	159.212
861.208	162.356
861.337	158.125
861.465	168.471
861.593	161.779
861.721	166.798
861.849	162.490
861.977	159.490
862.105	159.288
862.233	157.317
862.362	156.433
862.490	156.375
862.618	159.596
862.746	155.971
862.874	162.923
863.002	161.933
863.130	162.077
863.258	159.375
863.387	162.250
863.515	161.029
863.643	163.712
863.771	162.567
863.899	160.471
864.027	163.019
864.155	182.769
864.283	157.913
864.412	155.087
864.540	160.644
864.668	151.942
864.796	154.702
864.924	153.558
865.052	154.404
865.180	172.212
865.308	158.385
865.437	161.413
865.565	151.846
865.693	153.865
865.821	155.596
865.949	173.808
866.077	160.106
866.205	157.750
866.333	162.288
866.462	149.702
866.590	160.298
866.718	157.154
866.846	152.923
866.974	159.673
867.102	155.077
867.230	163.212
867.358	156.596
867.487	162.962
867.615	167.260
867.743	152.548
867.871	166.231
867.999	158.731
868.127	170.163
868.255	174.221
868.383	150.904
868.512	161.481
868.640	158.433
868.768	152.760
868.896	169.769
869.024	154.702
869.152	155.202
869.280	149.500
869.408	152.558
869.537	154.798
869.665	152.865
869.793	155.154
869.921	160.212
870.049	148.231
870.177	156.625
870.305	154.798
870.433	155.173
870.562	160.019
870.690	155.577
870.818	166.548
870.946	153.452
871.074	149.077
871.202	156.135
871.330	152.942
871.458	156.058
871.587	158.356
871.715	156.317
871.843	161.615
871.971	165.087
872.099	148.260
872.227	155.394
872.355	155.433
872.483	154.346
872.612	158.673
872.740	156.212
872.868	156.202
872.996	157.115
873.124	167.673
873.252	156.067
873.380	150.346
873.508	161.298
873.637	161.990
873.765	153.192
873.893	152.529
874.021	156.423
874.149	154.356
874.277	156.317
874.405	159.471
874.533	163.808
874.662	156.490
874.790	156.606
874.918	152.519
875.046	162.769
875.174	155.760
875.302	153.606
875.430	156.221
875.558	160.625
875.687	163.337
875.815	158.077
875.943	159.385
876.071	156.913
876.199	161.462
876.327	156.587
876.455	155.288
876.583	153.462
876.712	162.673
876.840	157.952
876.968	154.990
877.096	158.010
877.224	154.779
877.352	149.702
877.480	156.615
877.608	164.885
877.737	160.288
877.865	154.087
877.993	160.365
878.121	161.962
878.249	154.394
878.377	151.981
878.505	160.058
878.633	159.644
878.762	152.500
878.890	156.269
879.018	163.913
879.146	155.558
879.274	183.192
879.402	158.538
879.530	153.798
879.658	153.240
879.787	154.173
879.915	154.452
880.043	152.538
880.171	190.202
880.299	160.712
880.427	158.144
880.555	152.750
880.683	163.096
880.812	158.279
880.940	157.827
881.068	164.308
881.196	155.327
881.324	153.808
881.452	153.058
881.580	160.212
881.708	163.865
881.837	160.538
881.965	152.038
882.093	150.365
882.221	154.365
882.349	148.433
882.477	154.702
882.605	158.817
882.733	163.125
882.862	152.712
882.990	166.673
883.118	161.077
883.246	164.644
883.374	155.212
883.502	162.712
883.630	162.288
883.758	154.856
883.887	160.029
884.015	157.490
884.143	158.808
884.271	157.702
884.399	153.048
884.527	158.923
884.655	154.394
884.783	157.788
884.912	176.635
885.040	163.048
885.168	152.750
885.296	165.317
885.424	155.135
885.552	155.962
885.680	168.962
885.808	160.577
885.937	164.298
886.065	164.212
886.193	158.481
886.321	159.462
886.449	154.192
886.577	152.817
886.705	168.327
886.833	147.952
886.962	156.596
887.090	156.712
887.218	153.837
887.346	154.038
887.474	153.798
887.602	155.375
887.730	149.798
887.858	152.481
887.987	152.663
888.115	158.731
888.243	153.471
888.371	169.587
888.499	158.221
888.627	152.481
888.755	164.692
888.883	153.885
889.012	160.385
889.140	154.548
889.268	161.990
889.396	148.904
889.524	163.606
889.652	150.962
889.780	152.798
889.908	154.904
890.037	162.308
890.165	155.750
890.293	160.038
890.421	156.856
890.549	149.173
890.677	150.519
890.805	157.337
890.933	152.519
891.062	154.510
891.190	158.779
891.318	150.317
891.446	153.779
891.574	149.442
891.702	153.788
891.830	158.106
891.958	166.269
892.087	160.058
892.215	157.327
892.343	161.606
892.471	162.596
892.599	150.231
892.727	162.000
892.855	175.029
892.983	147.769
893.112	154.058
893.240	163.596
893.368	156.529
893.496	162.269
893.624	161.260
893.752	176.154
893.880	159.000
894.008	157.279
894.137	155.875
894.265	159.769
894.393	154.923
894.521	161.375
894.649	159.442
894.777	150.106
894.905	194.577
895.033	155.846
895.162	154.798
895.290	163.462
895.418	158.760
895.546	187.163
895.674	160.154
895.802	195.644
895.930	157.827
896.058	154.500
896.187	156.490
896.315	152.183
896.443	167.288
896.571	179.519
896.699	156.760
896.827	153.144
896.955	154.885
897.083	159.769
897.212	155.144
897.340	157.558
897.468	154.077
897.596	157.846
897.724	153.010
897.852	150.404
897.980	148.663
898.108	161.240
898.237	154.971
898.365	155.452
898.493	163.115
898.621	154.260
898.749	160.048
898.877	157.644
899.005	154.279
899.133	155.529
899.262	171.202
899.390	155.183
899.518	161.394
899.646	154.683
899.774	149.865
899.902	150.538
900.030	166.625
900.158	157.375
900.287	157.827
900.415	153.038
900.543	158.327
900.671	162.606
900.799	155.635
900.927	152.606
901.055	163.606
901.183	164.279
901.312	163.606
901.440	154.394
901.568	154.000
901.696	156.529
901.824	152.587
901.952	149.808
902.080	159.510
902.208	159.221
902.337	165.837
902.465	156.279
902.593	168.779
902.721	180.365
902.849	176.433
902.977	158.990
903.105	157.510
903.233	159.885
903.362	150.577
903.490	164.913
903.618	157.462
903.746	151.846
903.874	158.404
904.002	157.221
904.130	167.615
904.258	149.337
904.387	162.558
904.515	151.010
904.643	161.596
904.771	154.356
904.899	157.923
905.027	156.875
905.155	155.808
905.283	152.221
905.412	170.837
905.540	161.452
905.668	155.144
905.796	157.837
905.924	156.760
906.052	160.625
906.180	159.173
906.308	154.856
906.437	154.962
906.565	162.721
906.693	168.337
906.821	155.038
906.949	158.673
907.077	153.029
907.205	160.308
907.333	148.308
907.462	153.971
907.590	155.558
907.718	156.385
907.846	164.894
907.974	155.212
908.102	157.067
908.230	157.519
908.358	155.317
908.487	151.356
908.615	167.202
908.743	166.750
908.871	159.240
908.999	154.260
909.127	157.904
909.255	166.087
909.383	156.654
909.512	152.760
909.640	166.462
909.768	154.740
909.896	162.356
910.024	167.000
910.152	166.721
910.280	166.827
910.408	154.808
910.537	154.490
910.665	163.260
910.793	162.990
910.921	162.250
911.049	167.769
911.177	170.625
911.305	159.394
911.433	181.865
911.562	165.702
911.690	161.817
911.818	160.798
911.946	159.279
912.074	165.904
912.202	159.279
912.330	177.144
912.458	153.413
912.587	163.740
912.715	165.837
912.843	175.731
912.971	164.673
913.099	177.673
913.227	170.981
913.355	168.519
913.483	176.327
913.612	173.087
913.740	193.500
913.868	169.971
