70_140_90_Pol_at_750.00nm_cut_at_1179.00Y_01.dat
03.07.2023
11:17:01
cut middle at Y: 1179.00
top cursor: 1231 down cursor: 1127 mean of: 104 lines , 2560 datapoints
wavelength(nm)	intensity[arb. units]
585.996	10556.587
586.124	10353.308
586.252	10371.279
586.380	10402.327
586.508	10419.337
586.637	10507.663
586.765	10468.087
586.893	10485.154
587.021	10559.635
587.149	10583.519
587.277	10597.019
587.405	10600.096
587.533	10629.654
587.662	10679.942
587.790	10622.327
587.918	10631.769
588.046	10659.990
588.174	10655.731
588.302	10671.663
588.430	10700.606
588.558	10687.760
588.687	10706.404
588.815	10731.740
588.943	10721.529
589.071	10689.971
589.199	10716.442
589.327	10719.087
589.455	10774.913
589.583	10733.490
589.712	10722.154
589.840	10715.885
589.968	10706.644
590.096	10737.692
590.224	10730.433
590.352	10796.558
590.480	10730.500
590.608	10710.865
590.737	10742.019
590.865	10838.423
590.993	10701.288
591.121	10743.240
591.249	10726.154
591.377	10757.779
591.505	10840.058
591.633	10754.500
591.762	10761.846
591.890	10781.471
592.018	10879.500
592.146	10798.452
592.274	10760.423
592.402	10773.404
592.530	10981.587
592.658	10873.712
592.787	10870.587
592.915	10923.663
593.043	10815.346
593.171	10896.673
593.299	10882.163
593.427	10898.048
593.555	10908.000
593.683	10916.058
593.812	10948.885
593.940	10973.481
594.068	11002.788
594.196	10977.769
594.324	11048.183
594.452	11245.885
594.580	11141.971
594.708	11152.913
594.837	11132.231
594.965	11243.769
595.093	11195.962
595.221	11279.240
595.349	11266.913
595.477	11301.212
595.605	11286.894
595.733	11337.029
595.862	11355.865
595.990	11371.154
596.118	11418.394
596.246	11491.510
596.374	11412.904
596.502	11423.038
596.630	11463.894
596.758	11474.192
596.887	11510.327
597.015	11505.760
597.143	11511.875
597.271	11512.337
597.399	11585.615
597.527	11566.404
597.655	11543.346
597.783	11566.606
597.912	11548.394
598.040	11601.865
598.168	11563.356
598.296	11519.365
598.424	11713.019
598.552	11557.250
598.680	11574.442
598.808	11630.817
598.937	11589.356
599.065	11589.913
599.193	11593.385
599.321	11642.596
599.449	11571.019
599.577	11572.212
599.705	11596.135
599.833	11531.452
599.962	11561.952
600.090	11580.048
600.218	11590.760
600.346	11587.644
600.474	11565.106
600.602	11508.990
600.730	11558.038
600.858	11576.654
600.987	11643.250
601.115	11550.375
601.243	11646.115
601.371	11707.202
601.499	11693.538
601.627	11668.240
601.755	11652.933
601.883	11723.462
602.012	11659.096
602.140	11751.375
602.268	11705.894
602.396	11859.337
602.524	11780.904
602.652	11841.750
602.780	11844.779
602.908	11852.019
603.037	11935.923
603.165	11936.740
603.293	11965.798
603.421	12013.433
603.549	12009.250
603.677	12054.404
603.805	12087.625
603.933	12091.577
604.062	12189.077
604.190	12220.135
604.318	12237.010
604.446	12190.317
604.574	12301.423
604.702	12370.644
604.830	12315.529
604.958	12361.529
605.087	12460.077
605.215	12512.375
605.343	12567.404
605.471	12543.087
605.599	12547.346
605.727	12693.375
605.855	12582.433
605.983	12698.433
606.112	12710.288
606.240	12710.933
606.368	12729.202
606.496	12723.904
606.624	12833.481
606.752	12821.067
606.880	12855.385
607.008	12824.423
607.137	12830.433
607.265	12956.452
607.393	12884.721
607.521	12974.038
607.649	12892.635
607.777	12916.817
607.905	12937.846
608.033	12914.788
608.162	12927.644
608.290	12917.548
608.418	13006.837
608.546	12975.548
608.674	13009.538
608.802	12919.625
608.930	12936.471
609.058	12862.183
609.187	12916.644
609.315	12930.933
609.443	12893.298
609.571	13019.269
609.699	12889.279
609.827	12955.385
609.955	12904.010
610.083	12859.250
610.212	12848.606
610.340	12842.212
610.468	12854.510
610.596	12826.279
610.724	12811.904
610.852	12860.481
610.980	12862.990
611.108	12786.846
611.237	12811.981
611.365	12829.635
611.493	12831.548
611.621	12815.298
611.749	12867.683
611.877	12922.337
612.005	12876.750
612.133	12957.087
612.262	12927.058
612.390	12968.635
612.518	12998.317
612.646	12946.721
612.774	13033.798
612.902	13037.856
613.030	13059.221
613.158	13017.365
613.287	13096.096
613.415	13026.288
613.543	13093.644
613.671	13096.327
613.799	13121.077
613.927	13160.135
614.055	13164.548
614.183	13205.202
614.312	13196.567
614.440	13350.567
614.568	13281.385
614.696	13304.558
614.824	13313.087
614.952	13414.202
615.080	13390.221
615.208	13414.260
615.337	13530.462
615.465	13453.798
615.593	13546.731
615.721	13489.606
615.849	13604.577
615.977	13561.615
616.105	13636.712
616.233	13614.837
616.362	13711.567
616.490	13642.644
616.618	13728.577
616.746	13807.894
616.874	13806.529
617.002	13821.163
617.130	13826.500
617.258	13819.615
617.387	13871.163
617.515	13885.596
617.643	13874.875
617.771	13961.519
617.899	13889.337
618.027	13986.471
618.155	13959.904
618.283	13977.721
618.412	14005.923
618.540	14038.981
618.668	14014.298
618.796	14037.942
618.924	14020.250
619.052	14040.529
619.180	13998.163
619.308	14026.221
619.437	14051.183
619.565	14058.981
619.693	13993.510
619.821	14055.625
619.949	14008.606
620.077	14077.317
620.205	14086.923
620.333	14110.067
620.462	14040.962
620.590	14087.019
620.718	14092.356
620.846	14110.298
620.974	14091.606
621.102	14118.625
621.230	14125.067
621.358	14267.673
621.487	14080.596
621.615	14137.365
621.743	14058.212
621.871	14127.106
621.999	14038.125
622.127	14075.846
622.255	14078.202
622.383	14065.865
622.512	14051.240
622.640	14046.990
622.768	14146.231
622.896	14148.827
623.024	14123.673
623.152	14093.442
623.280	14184.894
623.408	14094.894
623.537	14170.740
623.665	14070.385
623.793	14150.923
623.921	14144.385
624.049	14111.635
624.177	14103.029
624.305	14136.356
624.433	14109.635
624.562	14123.673
624.690	14234.856
624.818	14063.548
624.946	14094.250
625.074	14052.221
625.202	14096.288
625.330	14122.375
625.458	14191.375
625.587	14100.577
625.715	14151.510
625.843	14095.654
625.971	14156.163
626.099	14124.827
626.227	14145.019
626.355	14078.567
626.483	14177.433
626.612	14131.779
626.740	14189.260
626.868	14135.692
626.996	14215.952
627.124	14142.760
627.252	14149.567
627.380	14177.846
627.508	14133.337
627.637	14212.317
627.765	14251.942
627.893	14198.173
628.021	14318.010
628.149	14215.683
628.277	14332.240
628.405	14276.865
628.533	14285.433
628.662	14291.885
628.790	14379.933
628.918	14323.279
629.046	14426.087
629.174	14302.798
629.302	14386.731
629.430	14346.615
629.558	14385.327
629.687	14359.231
629.815	14442.067
629.943	14535.788
630.071	14436.356
630.199	14467.837
630.327	14502.625
630.455	14513.125
630.583	14504.808
630.712	14519.558
630.840	14562.202
630.968	14508.962
631.096	14563.596
631.224	14543.250
631.352	14686.731
631.480	14616.212
631.608	14774.173
631.737	14623.885
631.865	14714.202
631.993	14713.779
632.121	14855.029
632.249	14725.038
632.377	14692.673
632.505	14721.125
632.633	14737.644
632.762	14679.990
632.890	14691.250
633.018	14680.115
633.146	14675.356
633.274	14656.308
633.402	14740.615
633.530	14674.250
633.658	14688.529
633.787	14715.865
633.915	14698.538
634.043	14692.173
634.171	14684.712
634.299	14652.462
634.427	14662.981
634.555	14868.615
634.683	14673.625
634.812	14639.885
634.940	14604.558
635.068	14612.269
635.196	14605.365
635.324	14571.981
635.452	14586.769
635.580	14614.731
635.708	14501.663
635.837	14488.510
635.965	14464.346
636.093	14468.288
636.221	14424.288
636.349	14349.635
636.477	14376.135
636.605	14409.846
636.733	14364.471
636.862	14332.567
636.990	14324.731
637.118	14251.779
637.246	14225.096
637.374	14357.923
637.502	14178.760
637.630	14142.529
637.758	14119.125
637.887	14075.567
638.015	14186.000
638.143	14111.740
638.271	14009.308
638.399	14058.702
638.527	13947.567
638.655	13979.048
638.783	13949.788
638.912	13991.183
639.040	13853.798
639.168	13834.087
639.296	13832.298
639.424	13899.635
639.552	13821.538
639.680	13857.048
639.808	13829.731
639.937	13779.346
640.065	13718.875
640.193	13722.096
640.321	13844.346
640.449	13807.192
640.577	13731.106
640.705	13762.981
640.833	13728.606
640.962	13803.548
641.090	13683.837
641.218	13709.548
641.346	13775.875
641.474	13686.894
641.602	13708.587
641.730	13685.240
641.858	13663.981
641.987	13668.240
642.115	13818.740
642.243	13709.000
642.371	13861.144
642.499	13699.875
642.627	13759.327
642.755	13639.048
642.883	13713.894
643.012	13678.413
643.140	13736.096
643.268	13737.596
643.396	13671.490
643.524	13696.375
643.652	13789.856
643.780	13659.067
643.908	13671.779
644.037	13788.413
644.165	13751.933
644.293	13828.731
644.421	13661.173
644.549	13732.231
644.677	13733.779
644.805	13686.452
644.933	13643.798
645.062	13717.356
645.190	13798.692
645.318	13699.413
645.446	13598.760
645.574	13616.144
645.702	13648.712
645.830	13646.519
645.958	13602.462
646.087	13608.192
646.215	13571.317
646.343	13537.538
646.471	13748.375
646.599	13539.240
646.727	13554.865
646.855	13542.279
646.983	13518.308
647.112	13597.990
647.240	13511.500
647.368	13537.885
647.496	13485.385
647.624	13472.221
647.752	13438.000
647.880	13415.135
648.008	13426.413
648.137	13458.135
648.265	13376.567
648.393	13433.596
648.521	13306.433
648.649	13472.913
648.777	13395.096
648.905	13315.865
649.033	13362.462
649.162	13213.442
649.290	13151.394
649.418	13178.404
649.546	13360.279
649.674	13148.067
649.802	13127.202
649.930	13042.654
650.058	13037.260
650.187	13077.337
650.315	12998.952
650.443	13006.606
650.571	12918.413
650.699	12887.962
650.827	12882.173
650.955	12803.346
651.083	12914.981
651.212	12817.163
651.340	12819.625
651.468	12739.135
651.596	12754.423
651.724	12770.894
651.852	12670.635
651.980	12659.260
652.108	12639.990
652.237	12621.356
652.365	12567.846
652.493	12543.837
652.621	12513.394
652.749	12538.269
652.877	12494.346
653.005	12485.125
653.133	12408.048
653.262	12350.538
653.390	12343.635
653.518	12470.510
653.646	12298.442
653.774	12271.798
653.902	12338.971
654.030	12271.327
654.158	12188.952
654.287	12210.394
654.415	12150.452
654.543	12165.471
654.671	12121.885
654.799	12099.663
654.927	12069.308
655.055	12016.673
655.183	11993.288
655.312	11972.490
655.440	11952.038
655.568	11951.029
655.696	11983.462
655.824	11853.721
655.952	11865.702
656.080	11838.587
656.208	11819.846
656.337	11828.913
656.465	11962.106
656.593	11767.288
656.721	11806.490
656.849	11813.452
656.977	11605.433
657.105	11662.769
657.233	11671.894
657.362	11680.702
657.490	11631.962
657.618	11576.048
657.746	11567.096
657.874	11507.413
658.002	11428.962
658.130	11365.212
658.258	11364.875
658.387	11326.923
658.515	11290.365
658.643	11271.510
658.771	11341.500
658.899	11216.394
659.027	11221.173
659.155	11215.769
659.283	11155.385
659.412	11154.000
659.540	11129.423
659.668	11127.837
659.796	11167.385
659.924	11131.231
660.052	11156.817
660.180	11066.490
660.308	11097.769
660.437	11075.462
660.565	11020.115
660.693	10923.029
660.821	11094.971
660.949	10885.019
661.077	10898.154
661.205	11023.615
661.333	10851.894
661.462	10797.010
661.590	10904.115
661.718	10762.029
661.846	10792.038
661.974	10743.885
662.102	10725.048
662.230	10704.192
662.358	10592.471
662.487	10691.856
662.615	10645.192
662.743	10628.615
662.871	10586.308
662.999	10503.788
663.127	10492.125
663.255	10478.490
663.383	10626.413
663.512	10388.567
663.640	10461.923
663.768	10463.202
663.896	10379.962
664.024	10361.712
664.152	10340.798
664.280	10412.904
664.408	10312.913
664.537	10292.144
664.665	10320.471
664.793	10283.240
664.921	10224.250
665.049	10268.260
665.177	10165.865
665.305	10210.231
665.433	10192.067
665.562	10306.606
665.690	10155.385
665.818	10278.048
665.946	10076.058
666.074	10057.365
666.202	10065.337
666.330	10007.000
666.458	10395.077
666.587	9944.673
666.715	9965.183
666.843	9914.625
666.971	9930.154
667.099	9968.279
667.227	9979.423
667.355	9929.404
667.483	9898.644
667.612	9909.337
667.740	9838.769
667.868	9797.788
667.996	9792.356
668.124	9827.769
668.252	9894.519
668.380	9744.154
668.508	9745.019
668.637	9712.077
668.765	9737.481
668.893	9676.596
669.021	9610.144
669.149	9680.942
669.277	9555.548
669.405	9649.529
669.533	9642.433
669.662	9529.596
669.790	9524.433
669.918	9507.260
670.046	9614.154
670.174	9427.538
670.302	9412.923
670.430	9373.846
670.558	9410.000
670.687	9531.529
670.815	9325.231
670.943	9332.375
671.071	9253.567
671.199	9221.971
671.327	9247.433
671.455	9198.135
671.583	9169.779
671.712	9158.471
671.840	9174.692
671.968	9275.750
672.096	9238.740
672.224	9018.404
672.352	9014.433
672.480	8943.856
672.608	8973.356
672.737	8927.250
672.865	8879.192
672.993	8868.490
673.121	8809.808
673.249	8803.183
673.377	8777.010
673.505	8756.971
673.633	8744.558
673.762	8675.587
673.890	8679.192
674.018	8687.990
674.146	8605.279
674.274	8594.971
674.402	8589.587
674.530	8564.837
674.658	8521.365
674.787	8442.154
674.915	8567.702
675.043	8429.596
675.171	8409.587
675.299	8357.442
675.427	8299.731
675.555	8292.721
675.683	8306.288
675.812	8248.760
675.940	8227.962
676.068	8159.212
676.196	8200.019
676.324	8097.096
676.452	8054.135
676.580	8020.683
676.708	8006.712
676.837	7982.750
676.965	8091.125
677.093	8097.433
677.221	7951.231
677.349	7885.548
677.477	7957.135
677.605	7795.779
677.733	7819.048
677.862	7777.519
677.990	7747.250
678.118	7809.269
678.246	7691.240
678.374	7768.288
678.502	7677.471
678.630	7586.365
678.758	7630.981
678.887	7708.000
679.015	7509.288
679.143	7475.933
679.271	7477.769
679.399	7452.923
679.527	7473.587
679.655	7467.077
679.783	7361.433
679.912	7351.596
680.040	7516.413
680.168	7334.298
680.296	7323.385
680.424	7280.490
680.552	7243.000
680.680	7230.490
680.808	7175.990
680.937	7146.702
681.065	7225.423
681.193	7118.375
681.321	7082.750
681.449	7111.154
681.577	7075.548
681.705	7044.990
681.833	7067.885
681.962	7013.385
682.090	6962.663
682.218	6975.913
682.346	6971.452
682.474	6906.702
682.602	6906.423
682.730	6933.452
682.858	6863.923
682.987	6823.423
683.115	6875.788
683.243	6826.760
683.371	6802.250
683.499	6761.596
683.627	6794.250
683.755	6742.087
683.883	6712.154
684.012	6721.904
684.140	6674.577
684.268	6686.490
684.396	6702.692
684.524	6616.846
684.652	6649.404
684.780	6608.125
684.908	6627.548
685.037	6613.298
685.165	6556.163
685.293	6624.663
685.421	6549.000
685.549	6566.394
685.677	6498.288
685.805	6526.077
685.933	6462.596
686.062	6481.433
686.190	6420.971
686.318	6393.913
686.446	6349.798
686.574	6345.750
686.702	6417.298
686.830	6313.308
686.958	6376.529
687.087	6281.635
687.215	6285.808
687.343	6287.740
687.471	6406.702
687.599	6172.231
687.727	6186.365
687.855	6152.635
687.983	6127.135
688.112	6161.019
688.240	6105.356
688.368	6147.827
688.496	6076.433
688.624	6059.750
688.752	6192.115
688.880	6028.173
689.008	6022.519
689.137	5979.798
689.265	5931.577
689.393	5940.567
689.521	5915.058
689.649	6011.365
689.777	5914.923
689.905	5971.240
690.033	5820.788
690.162	5828.481
690.290	5848.337
690.418	5773.740
690.546	5838.163
690.674	5787.962
690.802	5799.135
690.930	5725.894
691.058	5736.548
691.187	5675.125
691.315	5667.202
691.443	5640.837
691.571	5650.452
691.699	5588.308
691.827	5590.471
691.955	5570.548
692.083	5568.894
692.212	5538.567
692.340	5515.596
692.468	5563.913
692.596	5516.644
692.724	5447.212
692.852	5491.135
692.980	5476.288
693.108	5491.837
693.237	5377.058
693.365	5395.683
693.493	5373.587
693.621	5333.875
693.749	5294.250
693.877	5371.356
694.005	5252.500
694.133	5249.625
694.262	5325.692
694.390	5194.471
694.518	5230.548
694.646	5195.433
694.774	5126.231
694.902	5110.875
695.030	5154.817
695.158	5092.202
695.287	5093.885
695.415	5062.750
695.543	5064.471
695.671	5007.683
695.799	5126.240
695.927	5001.971
696.055	5000.712
696.183	4929.317
696.312	5114.308
696.440	4943.712
696.568	4932.087
696.696	4847.471
696.824	4816.587
696.952	4812.125
697.080	4815.260
697.208	4747.019
697.337	4770.125
697.465	4749.712
697.593	4675.683
697.721	4826.212
697.849	4687.144
697.977	4716.462
698.105	4732.971
698.233	4692.740
698.362	4599.962
698.490	4733.606
698.618	4559.346
698.746	4542.683
698.874	4603.558
699.002	4572.865
699.130	4562.462
699.258	4504.510
699.387	4448.212
699.515	4496.760
699.643	4479.519
699.771	4534.625
699.899	4413.250
700.027	4378.981
700.155	4435.481
700.283	4316.808
700.412	4329.173
700.540	4357.567
700.668	4384.779
700.796	4242.317
700.924	4317.788
701.052	4291.038
701.180	4288.673
701.308	4212.337
701.437	4168.019
701.565	4153.837
701.693	4193.558
701.821	4355.529
701.949	4087.760
702.077	4136.875
702.205	4175.308
702.333	4092.827
702.462	4045.567
702.590	4108.077
702.718	3998.058
702.846	4183.885
702.974	3967.106
703.102	3966.067
703.230	3984.692
703.358	3923.413
703.487	3925.788
703.615	3892.548
703.743	3875.337
703.871	3876.731
703.999	3853.933
704.127	3835.442
704.255	3795.817
704.383	3818.135
704.512	3854.260
704.640	3823.510
704.768	3872.337
704.896	3742.683
705.024	3696.163
705.152	3718.856
705.280	3758.433
705.408	3664.615
705.537	3627.385
705.665	3654.510
705.793	3626.798
705.921	3612.135
706.049	3568.644
706.177	3614.087
706.305	3536.106
706.433	3570.106
706.562	3551.260
706.690	3557.904
706.818	3550.894
706.946	3487.154
707.074	3458.769
707.202	3437.327
707.330	3446.413
707.458	3418.317
707.587	3366.183
707.715	3433.048
707.843	3433.317
707.971	3413.971
708.099	3331.375
708.227	3333.462
708.355	3325.058
708.483	3292.788
708.612	3300.577
708.740	3261.038
708.868	3260.452
708.996	3310.365
709.124	3290.712
709.252	3255.288
709.380	3254.135
709.508	3225.644
709.637	3225.231
709.765	3190.817
709.893	3226.125
710.021	3150.346
710.149	3245.413
710.277	3093.240
710.405	3123.692
710.533	3105.317
710.662	3082.173
710.790	3207.885
710.918	3048.990
711.046	3106.308
711.174	3051.538
711.302	3078.250
711.430	3041.048
711.558	3078.442
711.687	3039.481
711.815	2984.654
711.943	2971.250
712.071	2962.135
712.199	2989.490
712.327	3048.788
712.455	2937.529
712.583	3090.298
712.712	2945.875
712.840	2972.702
712.968	2905.779
713.096	2876.154
713.224	2865.240
713.352	2866.096
713.480	2817.875
713.608	2805.212
713.737	2788.442
713.865	2852.221
713.993	2803.087
714.121	2810.606
714.249	2756.183
714.377	2759.462
714.505	2744.087
714.633	2758.817
714.762	2725.010
714.890	2711.625
715.018	2699.606
715.146	2774.346
715.274	2680.875
715.402	2671.635
715.530	2676.942
715.658	2715.952
715.787	2660.894
715.915	2773.221
716.043	2647.029
716.171	2741.712
716.299	2621.423
716.427	2678.240
716.555	2580.587
716.683	2610.058
716.812	2587.615
716.940	2555.308
717.068	2558.529
717.196	2691.019
717.324	2560.346
717.452	2564.673
717.580	2595.731
717.708	2531.106
717.837	2529.221
717.965	2552.654
718.093	2520.577
718.221	2538.115
718.349	2557.962
718.477	2478.635
718.605	2542.231
718.733	2494.202
718.862	2510.904
718.990	2482.000
719.118	2503.990
719.246	2445.558
719.374	2444.596
719.502	2471.067
719.630	2496.240
719.758	2430.846
719.887	2417.356
720.015	2427.163
720.143	2423.885
720.271	2396.375
720.399	2411.077
720.527	2384.913
720.655	2397.317
720.783	2380.029
720.912	2350.510
721.040	2343.260
721.168	2352.962
721.296	2329.327
721.424	2330.817
721.552	2319.885
721.680	2299.990
721.808	2326.394
721.937	2297.135
722.065	2273.615
722.193	2262.692
722.321	2295.462
722.449	2267.644
722.577	2241.788
722.705	2239.250
722.833	2219.529
722.962	2216.827
723.090	2193.125
723.218	2182.962
723.346	2181.433
723.474	2189.721
723.602	2176.279
723.730	2142.846
723.858	2141.067
723.987	2163.644
724.115	2141.317
724.243	2139.221
724.371	2106.635
724.499	2124.462
724.627	2098.067
724.755	2107.269
724.883	2085.885
725.012	2101.769
725.140	2080.423
725.268	2053.606
725.396	2035.077
725.524	2050.856
725.652	2023.385
725.780	2025.827
725.908	2012.817
726.037	1993.683
726.165	1991.038
726.293	1996.856
726.421	1973.904
726.549	1989.452
726.677	1960.288
726.805	1953.577
726.933	1948.971
727.062	1939.077
727.190	1930.846
727.318	1905.433
727.446	1922.135
727.574	1894.192
727.702	1875.904
727.830	1883.279
727.958	1890.510
728.087	1879.240
728.215	1853.240
728.343	1852.279
728.471	1843.673
728.599	1840.692
728.727	1835.481
728.855	1841.356
728.983	1806.663
729.112	1813.404
729.240	1795.538
729.368	1793.404
729.496	1782.615
729.624	1781.673
729.752	1791.192
729.880	1777.788
730.008	1769.865
730.137	1760.510
730.265	1757.481
730.393	1741.788
730.521	1724.798
730.649	1718.183
730.777	1716.952
730.905	1703.365
731.033	1684.356
731.162	1685.615
731.290	1695.519
731.418	1686.115
731.546	1676.404
731.674	1671.798
731.802	1664.567
731.930	1668.269
732.058	1630.817
732.187	1643.808
732.315	1652.375
732.443	1638.558
732.571	1640.019
732.699	1633.462
732.827	1637.625
732.955	1636.058
733.083	1606.769
733.212	1621.240
733.340	1613.962
733.468	1594.067
733.596	1580.798
733.724	1577.663
733.852	1579.212
733.980	1565.548
734.108	1573.635
734.237	1565.192
734.365	1556.173
734.493	1542.481
734.621	1555.058
734.749	1553.519
734.877	1532.154
735.005	1518.971
735.133	1537.308
735.262	1516.817
735.390	1507.077
735.518	1521.337
735.646	1511.308
735.774	1514.817
735.902	1484.077
736.030	1487.346
736.158	1490.394
736.287	1506.308
736.415	1492.010
736.543	1467.356
736.671	1447.077
736.799	1463.250
736.927	1472.308
737.055	1466.317
737.183	1433.115
737.312	1440.798
737.440	1437.702
737.568	1428.231
737.696	1437.375
737.824	1434.115
737.952	1640.894
738.080	1408.308
738.208	1404.365
738.337	1403.538
738.465	1407.510
738.593	1384.644
738.721	1376.923
738.849	1392.827
738.977	1372.212
739.105	1395.288
739.233	1389.106
739.362	1358.942
739.490	1367.933
739.618	1362.375
739.746	1355.269
739.874	1351.625
740.002	1343.240
740.130	1325.654
740.258	1319.067
740.387	1329.048
740.515	1329.413
740.643	1297.000
740.771	1330.019
740.899	1297.837
741.027	1291.769
741.155	1298.192
741.283	1287.760
741.412	1302.971
741.540	1286.481
741.668	1268.644
741.796	1284.433
741.924	1272.346
742.052	1264.788
742.180	1273.538
742.308	1255.952
742.437	1252.240
742.565	1252.385
742.693	1249.702
742.821	1245.683
742.949	1240.712
743.077	1222.817
743.205	1221.683
743.333	1215.644
743.462	1217.327
743.590	1196.702
743.718	1203.548
743.846	1208.279
743.974	1220.173
744.102	1204.798
744.230	1191.231
744.358	1194.231
744.487	1171.048
744.615	1175.365
744.743	1168.423
744.871	1158.731
744.999	1166.423
745.127	1171.163
745.255	1147.837
745.383	1142.077
745.512	1136.231
745.640	1136.615
745.768	1137.673
745.896	1129.183
746.024	1128.596
746.152	1132.683
746.280	1133.404
746.408	1117.500
746.537	1107.615
746.665	1121.702
746.793	1117.327
746.921	1102.135
747.049	1108.865
747.177	1096.279
747.305	1097.904
747.433	1099.058
747.562	1076.702
747.690	1083.721
747.818	1066.846
747.946	1079.327
748.074	1066.375
748.202	1062.394
748.330	1052.029
748.458	1057.933
748.587	1062.106
748.715	1050.760
748.843	1037.894
748.971	1045.125
749.099	1049.423
749.227	1037.837
749.355	1054.029
749.483	1014.462
749.612	1045.558
749.740	1030.846
749.868	1020.856
749.996	1003.712
750.124	1028.904
750.252	1013.913
750.380	1006.990
750.508	1020.962
750.637	996.731
750.765	1000.019
750.893	995.962
751.021	979.173
751.149	985.625
751.277	978.356
751.405	969.087
751.533	987.029
751.662	964.212
751.790	968.856
751.918	963.933
752.046	957.529
752.174	947.779
752.302	949.288
752.430	930.163
752.558	936.125
752.687	939.365
752.815	923.452
752.943	932.317
753.071	922.712
753.199	930.548
753.327	940.904
753.455	913.837
753.583	902.067
753.712	899.702
753.840	907.327
753.968	894.731
754.096	903.721
754.224	900.192
754.352	880.337
754.480	904.433
754.608	886.260
754.737	878.260
754.865	891.433
754.993	878.337
755.121	875.019
755.249	856.625
755.377	849.750
755.505	860.346
755.633	857.596
755.762	851.846
755.890	863.981
756.018	854.048
756.146	831.115
756.274	836.048
756.402	829.490
756.530	855.346
756.658	832.202
756.787	822.942
756.915	819.298
757.043	803.615
757.171	813.817
757.299	819.490
757.427	801.625
757.555	793.048
757.683	804.154
757.812	812.519
757.940	789.087
758.068	786.875
758.196	789.163
758.324	794.308
758.452	789.817
758.580	785.663
758.708	778.654
758.837	794.125
758.965	785.683
759.093	774.692
759.221	755.462
759.349	753.625
759.477	752.183
759.605	750.712
759.733	760.625
759.862	746.644
759.990	738.808
760.118	740.212
760.246	738.817
760.374	748.692
760.502	740.558
760.630	725.692
760.758	732.769
760.887	721.606
761.015	722.125
761.143	723.712
761.271	721.144
761.399	710.221
761.527	723.788
761.655	729.894
761.783	705.163
761.912	709.683
762.040	719.462
762.168	689.462
762.296	693.192
762.424	703.875
762.552	697.519
762.680	680.221
762.808	708.596
762.937	683.721
763.065	670.231
763.193	676.288
763.321	671.413
763.449	663.894
763.577	657.788
763.705	669.654
763.833	668.885
763.962	656.337
764.090	656.327
764.218	653.029
764.346	650.548
764.474	648.587
764.602	649.365
764.730	649.269
764.858	651.183
764.987	648.337
765.115	642.269
765.243	629.654
765.371	631.971
765.499	619.904
765.627	621.779
765.755	627.962
765.883	624.413
766.012	620.288
766.140	616.510
766.268	607.288
766.396	614.913
766.524	613.087
766.652	600.500
766.780	611.058
766.908	608.558
767.037	624.817
767.165	604.692
767.293	603.279
767.421	612.702
767.549	590.260
767.677	612.452
767.805	592.183
767.933	592.471
768.062	584.250
768.190	586.827
768.318	578.298
768.446	578.663
768.574	573.462
768.702	583.212
768.830	584.019
768.958	573.240
769.087	574.846
769.215	571.298
769.343	571.183
769.471	581.000
769.599	565.404
769.727	565.510
769.855	554.183
769.983	588.529
770.112	557.365
770.240	555.462
770.368	549.894
770.496	546.798
770.624	554.500
770.752	540.202
770.880	555.558
771.008	550.654
771.137	540.260
771.265	536.029
771.393	527.865
771.521	541.981
771.649	543.635
771.777	567.827
771.905	588.365
772.033	564.904
772.162	522.692
772.290	528.875
772.418	529.942
772.546	522.577
772.674	525.923
772.802	519.673
772.930	530.740
773.058	522.154
773.187	522.433
773.315	511.673
773.443	515.731
773.571	521.019
773.699	507.471
773.827	518.644
773.955	529.817
774.083	514.779
774.212	501.577
774.340	503.971
774.468	509.962
774.596	507.212
774.724	510.529
774.852	509.827
774.980	501.462
775.108	502.288
775.237	491.231
775.365	491.048
775.493	495.817
775.621	490.740
775.749	497.000
775.877	495.933
776.005	489.163
776.133	480.481
776.262	494.077
776.390	484.663
776.518	480.385
776.646	483.010
776.774	475.615
776.902	475.279
777.030	471.740
777.158	471.817
777.287	483.356
777.415	471.212
777.543	480.163
777.671	472.510
777.799	479.260
777.927	470.000
778.055	472.808
778.183	460.173
778.312	461.712
778.440	464.144
778.568	479.971
778.696	472.125
778.824	470.971
778.952	473.433
779.080	460.163
779.208	461.673
779.337	461.721
779.465	467.279
779.593	454.894
779.721	460.125
779.849	455.000
779.977	456.202
780.105	453.202
780.233	456.865
780.362	450.317
780.490	445.471
780.618	455.673
780.746	445.106
780.874	444.019
781.002	449.625
781.130	444.769
781.258	433.462
781.387	447.019
781.515	441.673
781.643	429.462
781.771	438.192
781.899	447.654
782.027	439.990
782.155	432.750
782.283	427.654
782.412	439.490
782.540	439.587
782.668	431.154
782.796	428.048
782.924	439.163
783.052	434.433
783.180	428.038
783.308	427.558
783.437	422.712
783.565	431.933
783.693	429.029
783.821	433.990
783.949	424.221
784.077	422.423
784.205	423.404
784.333	417.529
784.462	424.865
784.590	413.837
784.718	409.413
784.846	421.750
784.974	429.346
785.102	412.337
785.230	417.663
785.358	411.135
785.487	415.548
785.615	406.260
785.743	406.865
785.871	417.375
785.999	417.077
786.127	419.183
786.255	404.510
786.383	402.115
786.512	406.808
786.640	402.144
786.768	399.394
786.896	403.288
787.024	398.683
787.152	401.135
787.280	412.096
787.408	400.615
787.537	406.096
787.665	400.519
787.793	398.202
787.921	392.885
788.049	393.077
788.177	395.423
788.305	390.558
788.433	393.183
788.562	384.029
788.690	384.750
788.818	392.779
788.946	386.519
789.074	378.625
789.202	376.346
789.330	385.587
789.458	385.106
789.587	382.346
789.715	385.683
789.843	385.942
789.971	379.721
790.099	371.298
790.227	376.827
790.355	375.865
790.483	380.279
790.612	380.462
790.740	386.337
790.868	374.067
790.996	392.404
791.124	383.442
791.252	385.087
791.380	369.654
791.508	376.846
791.637	372.721
791.765	362.240
791.893	371.808
792.021	376.827
792.149	366.154
792.277	363.519
792.405	360.683
792.533	369.615
792.662	363.413
792.790	365.827
792.918	375.596
793.046	362.538
793.174	359.798
793.302	358.327
793.430	358.923
793.558	368.644
793.687	362.269
793.815	355.856
793.943	370.442
794.071	353.962
794.199	352.250
794.327	352.394
794.455	359.615
794.583	356.106
794.712	351.096
794.840	348.577
794.968	350.183
795.096	360.317
795.224	340.038
795.352	380.962
795.480	343.683
795.608	344.404
795.737	343.663
795.865	344.346
795.993	347.885
796.121	337.452
796.249	341.827
796.377	342.692
796.505	340.058
796.633	346.596
796.762	338.433
796.890	336.452
797.018	337.144
797.146	346.385
797.274	346.721
797.402	330.279
797.530	332.856
797.658	332.067
797.787	350.635
797.915	336.240
798.043	328.788
798.171	334.010
798.299	323.452
798.427	335.692
798.555	344.019
798.683	329.144
798.812	360.183
798.940	370.808
799.068	360.106
799.196	336.740
799.324	337.433
799.452	321.250
799.580	326.587
799.708	324.663
799.837	324.202
799.965	314.779
800.093	316.788
800.221	319.240
800.349	316.087
800.477	315.990
800.605	315.135
800.733	328.663
800.862	326.202
800.990	315.663
801.118	313.702
801.246	317.481
801.374	324.596
801.502	310.538
801.630	311.933
801.758	310.240
801.887	303.231
802.015	313.346
802.143	304.106
802.271	306.298
802.399	304.067
802.527	301.990
802.655	309.952
802.783	304.317
802.912	300.029
803.040	299.413
803.168	305.163
803.296	308.625
803.424	298.010
803.552	303.971
803.680	305.202
803.808	302.740
803.937	304.510
804.065	304.885
804.193	301.865
804.321	320.635
804.449	312.933
804.577	308.000
804.705	318.808
804.833	299.019
804.962	295.029
805.090	297.452
805.218	292.240
805.346	294.779
805.474	304.788
805.602	303.308
805.730	304.529
805.858	286.019
805.987	283.875
806.115	289.558
806.243	297.067
806.371	297.144
806.499	297.471
806.627	284.558
806.755	289.788
806.883	286.356
807.012	289.038
807.140	294.385
807.268	279.731
807.396	283.606
807.524	283.423
807.652	291.750
807.780	288.615
807.908	287.644
808.037	298.096
808.165	292.192
808.293	279.029
808.421	282.971
808.549	281.894
808.677	278.308
808.805	296.683
808.933	282.577
809.062	283.240
809.190	294.221
809.318	285.952
809.446	280.269
809.574	289.654
809.702	276.423
809.830	266.981
809.958	285.154
810.087	280.933
810.215	271.837
810.343	282.673
810.471	276.587
810.599	271.962
810.727	277.135
810.855	274.712
810.983	275.327
811.112	273.019
811.240	270.548
811.368	274.144
811.496	281.769
811.624	278.327
811.752	274.019
811.880	283.058
812.008	276.731
812.137	286.760
812.265	269.221
812.393	275.481
812.521	264.144
812.649	276.538
812.777	264.875
812.905	273.058
813.033	280.327
813.162	268.106
813.290	264.894
813.418	269.587
813.546	267.058
813.674	269.423
813.802	260.625
813.930	264.875
814.058	257.462
814.187	265.365
814.315	263.663
814.443	258.163
814.571	264.471
814.699	259.115
814.827	261.702
814.955	263.740
815.083	255.317
815.212	261.337
815.340	255.173
815.468	265.077
815.596	259.240
815.724	261.365
815.852	265.163
815.980	257.885
816.108	259.538
816.237	260.721
816.365	269.808
816.493	256.933
816.621	268.865
816.749	249.981
816.877	314.317
817.005	273.596
817.133	260.692
817.262	260.298
817.390	249.404
817.518	263.500
817.646	247.029
817.774	248.875
817.902	242.173
818.030	249.288
818.158	257.750
818.287	251.240
818.415	251.644
818.543	251.154
818.671	255.510
818.799	245.058
818.927	243.904
819.055	272.702
819.183	252.500
819.312	266.462
819.440	249.231
819.568	241.192
819.696	249.933
819.824	251.538
819.952	246.885
820.080	243.827
820.208	247.519
820.337	245.442
820.465	249.885
820.593	243.750
820.721	246.010
820.849	244.942
820.977	244.106
821.105	240.471
821.233	233.058
821.362	251.567
821.490	236.837
821.618	248.587
821.746	252.327
821.874	238.538
822.002	232.365
822.130	240.510
822.258	241.452
822.387	237.135
822.515	242.087
822.643	237.952
822.771	240.202
822.899	244.490
823.027	235.942
823.155	247.587
823.283	248.144
823.412	249.087
823.540	232.721
823.668	230.298
823.796	236.615
823.924	233.356
824.052	232.692
824.180	237.712
824.308	234.962
824.437	248.538
824.565	238.577
824.693	223.567
824.821	232.231
824.949	236.327
825.077	238.394
825.205	229.452
825.333	234.038
825.462	236.019
825.590	231.337
825.718	230.750
825.846	231.837
825.974	237.154
826.102	226.817
826.230	229.760
826.358	234.452
826.487	231.990
826.615	231.663
826.743	223.702
826.871	238.692
826.999	225.452
827.127	231.615
827.255	228.635
827.383	228.202
827.512	224.019
827.640	229.106
827.768	248.577
827.896	219.337
828.024	225.288
828.152	223.058
828.280	228.702
828.408	221.692
828.537	224.904
828.665	222.567
828.793	226.731
828.921	224.279
829.049	226.577
829.177	227.356
829.305	223.894
829.433	222.019
829.562	222.240
829.690	225.644
829.818	230.308
829.946	221.481
830.074	218.163
830.202	220.644
830.330	224.760
830.458	214.712
830.587	227.115
830.715	218.029
830.843	214.894
830.971	225.837
831.099	225.760
831.227	250.615
831.355	215.990
831.483	222.260
831.612	222.000
831.740	214.452
831.868	215.856
831.996	223.375
832.124	218.029
832.252	223.029
832.380	214.346
832.508	219.394
832.637	218.577
832.765	224.942
832.893	214.279
833.021	211.394
833.149	213.952
833.277	214.500
833.405	221.135
833.533	209.192
833.662	214.394
833.790	207.885
833.918	216.856
834.046	211.067
834.174	211.317
834.302	215.519
834.430	207.115
834.558	210.394
834.687	214.990
834.815	215.019
834.943	209.096
835.071	213.779
835.199	219.856
835.327	209.250
835.455	220.346
835.583	211.625
835.712	207.356
835.840	213.173
835.968	207.183
836.096	216.740
836.224	210.500
836.352	211.779
836.480	205.990
836.608	204.452
836.737	212.212
836.865	204.683
836.993	215.385
837.121	217.096
837.249	212.846
837.377	205.654
837.505	201.288
837.633	210.635
837.762	209.721
837.890	210.192
838.018	209.327
838.146	207.904
838.274	210.346
838.402	203.644
838.530	218.731
838.658	208.625
838.787	216.212
838.915	201.798
839.043	212.865
839.171	203.423
839.299	211.971
839.427	225.923
839.555	213.942
839.683	204.058
839.812	205.567
839.940	197.827
840.068	207.952
840.196	231.654
840.324	226.135
840.452	208.163
840.580	203.048
840.708	195.019
840.837	205.769
840.965	202.606
841.093	202.615
841.221	199.865
841.349	201.577
841.477	195.423
841.605	200.163
841.733	202.933
841.862	211.346
841.990	200.365
842.118	198.096
842.246	204.817
842.374	194.154
842.502	208.404
842.630	198.731
842.758	197.663
842.887	209.433
843.015	214.038
843.143	200.731
843.271	202.404
843.399	196.769
843.527	202.817
843.655	197.740
843.783	198.096
843.912	201.048
844.040	197.654
844.168	194.442
844.296	209.135
844.424	202.750
844.552	202.885
844.680	202.654
844.808	194.760
844.937	195.298
845.065	195.817
845.193	215.000
845.321	200.010
845.449	203.702
845.577	196.846
845.705	193.615
845.833	195.471
845.962	204.067
846.090	193.971
846.218	207.981
846.346	201.413
846.474	198.019
846.602	192.587
846.730	196.510
846.858	195.269
846.987	192.019
847.115	201.260
847.243	204.663
847.371	189.519
847.499	192.538
847.627	198.817
847.755	193.404
847.883	204.808
848.012	205.423
848.140	190.240
848.268	187.192
848.396	195.548
848.524	204.433
848.652	194.654
848.780	189.673
848.908	194.663
849.037	195.990
849.165	186.933
849.293	200.894
849.421	189.077
849.549	193.115
849.677	191.865
849.805	195.865
849.933	189.433
850.062	197.365
850.190	194.240
850.318	191.000
850.446	198.635
850.574	191.808
850.702	193.375
850.830	185.923
850.958	190.288
851.087	197.173
851.215	184.490
851.343	190.865
851.471	189.394
851.599	195.221
851.727	198.452
851.855	194.529
851.983	195.731
852.112	191.212
852.240	200.115
852.368	202.913
852.496	189.144
852.624	192.115
852.752	199.163
852.880	194.173
853.008	190.885
853.137	189.385
853.265	198.846
853.393	190.971
853.521	184.981
853.649	194.894
853.777	188.846
853.905	182.423
854.033	185.202
854.162	184.058
854.290	188.942
854.418	202.885
854.546	213.567
854.674	205.356
854.802	189.423
854.930	186.500
855.058	194.827
855.187	184.885
855.315	211.750
855.443	184.817
855.571	187.308
855.699	196.817
855.827	179.971
855.955	182.260
856.083	183.827
856.212	186.144
856.340	192.577
856.468	186.981
856.596	190.885
856.724	193.933
856.852	201.115
856.980	181.788
857.108	180.788
857.237	177.702
857.365	192.192
857.493	189.692
857.621	188.346
857.749	182.269
857.877	182.413
858.005	180.481
858.133	184.154
858.262	179.808
858.390	178.856
858.518	178.490
858.646	188.337
858.774	180.144
858.902	180.260
859.030	183.423
859.158	187.337
859.287	185.625
859.415	184.202
859.543	182.981
859.671	187.827
859.799	195.558
859.927	181.817
860.055	177.933
860.183	177.096
860.312	180.385
860.440	183.779
860.568	174.587
860.696	185.087
860.824	190.077
860.952	174.798
861.080	183.971
861.208	185.240
861.337	182.606
861.465	191.058
861.593	181.048
861.721	187.779
861.849	186.394
861.977	178.067
862.105	185.394
862.233	177.452
862.362	179.702
862.490	179.856
862.618	178.212
862.746	180.529
862.874	179.231
863.002	184.183
863.130	186.635
863.258	181.635
863.387	181.231
863.515	180.596
863.643	186.894
863.771	178.683
863.899	181.865
864.027	181.587
864.155	202.269
864.283	177.846
864.412	177.356
864.540	181.067
864.668	173.067
864.796	177.885
864.924	176.885
865.052	175.423
865.180	190.029
865.308	181.490
865.437	182.375
865.565	171.029
865.693	179.038
865.821	174.894
865.949	195.212
866.077	177.942
866.205	174.663
866.333	180.654
866.462	168.423
866.590	179.846
866.718	177.625
866.846	168.962
866.974	179.250
867.102	172.808
867.230	182.500
867.358	177.163
867.487	183.279
867.615	187.856
867.743	172.827
867.871	186.962
867.999	173.192
868.127	184.971
868.255	190.827
868.383	168.875
868.512	177.163
868.640	175.971
868.768	171.471
868.896	183.337
869.024	172.423
869.152	175.308
869.280	170.577
869.408	169.615
869.537	171.856
869.665	168.538
869.793	172.779
869.921	173.192
870.049	166.712
870.177	168.933
870.305	172.500
870.433	170.231
870.562	177.673
870.690	174.683
870.818	177.279
870.946	166.519
871.074	168.019
871.202	171.462
871.330	166.654
871.458	175.048
871.587	174.125
871.715	175.288
871.843	175.654
871.971	176.894
872.099	163.327
872.227	173.375
872.355	169.558
872.483	170.404
872.612	174.625
872.740	171.721
872.868	170.625
872.996	174.683
873.124	180.125
873.252	169.413
873.380	163.712
873.508	176.962
873.637	176.548
873.765	165.865
873.893	166.740
874.021	169.712
874.149	168.308
874.277	170.933
874.405	173.183
874.533	175.500
874.662	166.962
874.790	176.346
874.918	163.692
875.046	173.125
875.174	172.010
875.302	166.433
875.430	167.519
875.558	170.077
875.687	175.971
875.815	170.731
875.943	175.808
876.071	171.250
876.199	173.548
876.327	174.250
876.455	169.962
876.583	168.683
876.712	178.683
876.840	172.308
876.968	172.837
877.096	172.183
877.224	167.067
877.352	164.019
877.480	170.606
877.608	174.750
877.737	172.760
877.865	164.183
877.993	169.837
878.121	170.346
878.249	169.356
878.377	167.240
878.505	171.250
878.633	170.981
878.762	160.885
878.890	166.481
879.018	174.798
879.146	166.567
879.274	194.971
879.402	172.596
879.530	169.125
879.658	169.625
879.787	168.260
879.915	165.250
880.043	165.712
880.171	204.067
880.299	171.260
880.427	172.548
880.555	162.135
880.683	174.644
880.812	167.260
880.940	165.865
881.068	176.635
881.196	165.019
881.324	161.587
881.452	161.173
881.580	169.885
881.708	176.048
881.837	169.952
881.965	166.808
882.093	157.375
882.221	163.731
882.349	159.596
882.477	166.510
882.605	168.077
882.733	169.837
882.862	161.413
882.990	175.144
883.118	176.231
883.246	175.250
883.374	166.404
883.502	172.471
883.630	170.471
883.758	162.913
883.887	173.192
884.015	174.750
884.143	170.548
884.271	164.942
884.399	160.346
884.527	169.712
884.655	163.894
884.783	167.731
884.912	189.625
885.040	172.875
885.168	161.442
885.296	178.240
885.424	163.558
885.552	167.952
885.680	177.808
885.808	168.692
885.937	173.163
886.065	174.788
886.193	163.683
886.321	166.029
886.449	161.212
886.577	166.029
886.705	177.356
886.833	160.596
886.962	167.692
887.090	167.933
887.218	161.404
887.346	163.481
887.474	160.250
887.602	161.394
887.730	159.962
887.858	159.731
887.987	160.087
888.115	170.231
888.243	161.817
888.371	174.740
888.499	165.298
888.627	162.279
888.755	172.798
888.883	165.817
889.012	171.404
889.140	163.029
889.268	167.096
889.396	155.269
889.524	174.519
889.652	157.269
889.780	162.673
889.908	165.760
890.037	170.654
890.165	163.125
890.293	168.125
890.421	167.894
890.549	154.221
890.677	158.308
890.805	165.971
890.933	161.827
891.062	163.817
891.190	164.048
891.318	161.029
891.446	163.808
891.574	153.760
891.702	161.837
891.830	167.606
891.958	172.125
892.087	169.279
892.215	164.365
892.343	168.442
892.471	168.865
892.599	155.702
892.727	166.077
892.855	181.875
892.983	156.337
893.112	157.894
893.240	172.721
893.368	160.971
893.496	173.096
893.624	169.865
893.752	180.885
893.880	165.606
894.008	166.760
894.137	160.731
894.265	173.019
894.393	160.971
894.521	167.942
894.649	165.231
894.777	155.356
894.905	198.269
895.033	160.683
895.162	164.269
895.290	171.125
895.418	163.798
895.546	196.942
895.674	165.423
895.802	203.077
895.930	165.567
896.058	159.942
896.187	165.356
896.315	160.288
896.443	168.933
896.571	185.231
896.699	159.529
896.827	161.702
896.955	160.250
897.083	167.827
897.212	162.240
897.340	159.673
897.468	162.462
897.596	162.260
897.724	158.962
897.852	154.327
897.980	155.663
898.108	167.837
898.237	161.452
898.365	162.442
898.493	166.250
898.621	158.683
898.749	160.904
898.877	161.962
899.005	163.000
899.133	161.538
899.262	174.798
899.390	163.125
899.518	165.058
899.646	159.327
899.774	156.721
899.902	156.577
900.030	169.365
900.158	159.394
900.287	163.538
900.415	156.894
900.543	162.442
900.671	168.096
900.799	163.625
900.927	155.731
901.055	170.548
901.183	169.519
901.312	166.173
901.440	157.365
901.568	159.010
901.696	156.433
901.824	156.952
901.952	157.019
902.080	164.760
902.208	162.269
902.337	170.337
902.465	159.827
902.593	173.750
902.721	186.087
902.849	178.673
902.977	162.692
903.105	164.712
903.233	159.163
903.362	156.240
903.490	165.250
903.618	160.779
903.746	156.538
903.874	161.875
904.002	158.240
904.130	169.202
904.258	152.346
904.387	167.144
904.515	154.962
904.643	162.048
904.771	157.163
904.899	158.663
905.027	165.663
905.155	161.337
905.283	157.750
905.412	174.317
905.540	161.125
905.668	161.596
905.796	162.308
905.924	160.692
906.052	161.635
906.180	168.308
906.308	158.375
906.437	157.096
906.565	163.721
906.693	169.442
906.821	156.471
906.949	160.231
907.077	155.433
907.205	167.077
907.333	155.423
907.462	156.269
907.590	154.596
907.718	156.452
907.846	164.971
907.974	155.221
908.102	160.356
908.230	162.798
908.358	159.260
908.487	155.385
908.615	169.856
908.743	169.192
908.871	161.962
908.999	156.173
909.127	162.260
909.255	169.452
909.383	152.663
909.512	153.625
909.640	171.308
909.768	159.846
909.896	164.308
910.024	164.865
910.152	167.740
910.280	168.231
910.408	153.654
910.537	160.135
910.665	165.885
910.793	163.721
910.921	166.423
911.049	169.471
911.177	166.548
911.305	163.000
911.433	184.606
911.562	168.712
911.690	165.394
911.818	159.615
911.946	164.029
912.074	166.558
912.202	160.279
912.330	176.721
912.458	154.192
912.587	163.663
912.715	167.865
912.843	172.385
912.971	168.567
913.099	182.827
913.227	172.894
913.355	167.885
913.483	176.510
913.612	172.529
913.740	194.125
913.868	170.115
