70_140_0_Pol_at_750.00nm_cut_at_1179.00Y_01.dat
03.07.2023
11:16:30
cut middle at Y: 1179.00
top cursor: 1231 down cursor: 1127 mean of: 104 lines , 2560 datapoints
wavelength(nm)	intensity[arb. units]
585.996	11046.663
586.124	10841.356
586.252	10786.038
586.380	10825.356
586.508	10879.442
586.637	10937.538
586.765	10913.577
586.893	10938.548
587.021	10983.173
587.149	10998.346
587.277	11042.865
587.405	11049.212
587.533	11102.385
587.662	11148.644
587.790	11094.096
587.918	11128.740
588.046	11086.904
588.174	11132.712
588.302	11123.712
588.430	11138.337
588.558	11144.875
588.687	11177.394
588.815	11145.337
588.943	11165.250
589.071	11148.933
589.199	11194.740
589.327	11175.481
589.455	11233.567
589.583	11188.567
589.712	11144.885
589.840	11157.750
589.968	11157.019
590.096	11154.442
590.224	11176.163
590.352	11225.135
590.480	11169.212
590.608	11170.356
590.737	11182.317
590.865	11257.077
590.993	11113.788
591.121	11171.577
591.249	11144.010
591.377	11171.721
591.505	11255.856
591.633	11163.019
591.762	11194.192
591.890	11186.144
592.018	11267.654
592.146	11201.923
592.274	11217.240
592.402	11213.875
592.530	11398.865
592.658	11306.308
592.787	11287.288
592.915	11349.673
593.043	11297.077
593.171	11332.240
593.299	11307.702
593.427	11296.606
593.555	11377.106
593.683	11345.144
593.812	11363.500
593.940	11414.231
594.068	11433.154
594.196	11387.596
594.324	11468.375
594.452	11663.933
594.580	11539.192
594.708	11565.798
594.837	11545.654
594.965	11681.192
595.093	11629.788
595.221	11731.144
595.349	11690.673
595.477	11755.029
595.605	11727.096
595.733	11760.163
595.862	11784.971
595.990	11807.202
596.118	11857.673
596.246	11950.250
596.374	11882.510
596.502	11912.510
596.630	11916.385
596.758	11929.904
596.887	11956.356
597.015	11959.462
597.143	11977.885
597.271	11984.183
597.399	12057.654
597.527	12010.788
597.655	11991.827
597.783	12023.913
597.912	12021.000
598.040	12092.577
598.168	12049.519
598.296	11969.356
598.424	12208.135
598.552	12004.990
598.680	12047.779
598.808	12125.519
598.937	12054.606
599.065	12073.827
599.193	12126.683
599.321	12106.038
599.449	12024.462
599.577	12041.894
599.705	12043.404
599.833	12004.673
599.962	12008.760
600.090	12047.385
600.218	12034.240
600.346	12046.663
600.474	12036.067
600.602	11994.125
600.730	12033.567
600.858	12017.577
600.987	12078.712
601.115	12063.990
601.243	12105.212
601.371	12125.327
601.499	12113.019
601.627	12138.452
601.755	12130.019
601.883	12182.231
602.012	12034.183
602.140	12186.125
602.268	12151.721
602.396	12283.327
602.524	12189.981
602.652	12270.923
602.780	12274.202
602.908	12316.058
603.037	12382.337
603.165	12405.356
603.293	12406.529
603.421	12432.106
603.549	12476.952
603.677	12497.317
603.805	12559.288
603.933	12584.096
604.062	12681.567
604.190	12708.788
604.318	12720.212
604.446	12699.077
604.574	12782.875
604.702	12864.798
604.830	12822.231
604.958	12847.317
605.087	12922.115
605.215	13009.875
605.343	13110.846
605.471	13076.356
605.599	13053.192
605.727	13134.125
605.855	13162.644
605.983	13201.702
606.112	13237.327
606.240	13244.231
606.368	13245.144
606.496	13233.288
606.624	13325.760
606.752	13307.375
606.880	13375.423
607.008	13322.837
607.137	13342.163
607.265	13466.779
607.393	13390.548
607.521	13448.596
607.649	13417.490
607.777	13396.394
607.905	13434.865
608.033	13374.894
608.162	13409.760
608.290	13429.250
608.418	13486.500
608.546	13479.808
608.674	13527.721
608.802	13396.490
608.930	13464.663
609.058	13382.269
609.187	13408.423
609.315	13416.760
609.443	13353.654
609.571	13498.067
609.699	13355.635
609.827	13465.827
609.955	13419.615
610.083	13350.058
610.212	13304.250
610.340	13313.673
610.468	13297.087
610.596	13361.760
610.724	13297.904
610.852	13387.231
610.980	13379.029
611.108	13317.663
611.237	13317.769
611.365	13309.077
611.493	13312.971
611.621	13279.471
611.749	13357.048
611.877	13367.423
612.005	13338.673
612.133	13376.510
612.262	13400.788
612.390	13457.404
612.518	13477.010
612.646	13419.019
612.774	13494.663
612.902	13504.481
613.030	13504.000
613.158	13465.298
613.287	13589.144
613.415	13522.721
613.543	13512.356
613.671	13556.394
613.799	13624.144
613.927	13633.394
614.055	13657.279
614.183	13670.875
614.312	13680.356
614.440	13834.000
614.568	13757.452
614.696	13821.202
614.824	13831.606
614.952	13867.673
615.080	13881.106
615.208	13943.721
615.337	14024.279
615.465	13948.231
615.593	14054.385
615.721	14014.462
615.849	14113.635
615.977	14081.846
616.105	14113.154
616.233	14176.779
616.362	14213.423
616.490	14179.471
616.618	14231.865
616.746	14336.173
616.874	14315.760
617.002	14328.740
617.130	14326.981
617.258	14354.644
617.387	14378.269
617.515	14392.500
617.643	14384.798
617.771	14481.942
617.899	14425.635
618.027	14489.404
618.155	14531.048
618.283	14498.885
618.412	14512.433
618.540	14606.519
618.668	14579.587
618.796	14585.337
618.924	14573.538
619.052	14585.356
619.180	14545.817
619.308	14570.269
619.437	14571.029
619.565	14614.058
619.693	14554.288
619.821	14604.048
619.949	14548.308
620.077	14588.721
620.205	14607.856
620.333	14583.808
620.462	14563.183
620.590	14580.279
620.718	14623.173
620.846	14632.442
620.974	14624.365
621.102	14638.433
621.230	14641.894
621.358	14784.606
621.487	14567.606
621.615	14605.183
621.743	14532.788
621.871	14611.490
621.999	14522.856
622.127	14555.587
622.255	14559.202
622.383	14535.125
622.512	14530.077
622.640	14526.740
622.768	14585.587
622.896	14639.019
623.024	14570.394
623.152	14534.702
623.280	14618.885
623.408	14524.442
623.537	14549.298
623.665	14527.923
623.793	14574.087
623.921	14552.769
624.049	14522.327
624.177	14496.462
624.305	14510.567
624.433	14520.702
624.562	14525.894
624.690	14660.625
624.818	14455.933
624.946	14511.221
625.074	14458.471
625.202	14459.058
625.330	14477.394
625.458	14589.269
625.587	14442.212
625.715	14541.846
625.843	14484.202
625.971	14503.817
626.099	14446.846
626.227	14514.125
626.355	14463.115
626.483	14542.250
626.612	14484.712
626.740	14514.817
626.868	14482.010
626.996	14528.596
627.124	14518.048
627.252	14468.779
627.380	14516.808
627.508	14478.894
627.637	14504.337
627.765	14559.769
627.893	14598.433
628.021	14623.885
628.149	14542.750
628.277	14619.827
628.405	14574.663
628.533	14594.029
628.662	14619.115
628.790	14691.423
628.918	14632.760
629.046	14763.163
629.174	14600.125
629.302	14675.558
629.430	14620.567
629.558	14712.712
629.687	14636.317
629.815	14732.250
629.943	14843.423
630.071	14795.952
630.199	14751.173
630.327	14806.577
630.455	14826.548
630.583	14823.317
630.712	14830.510
630.840	14859.683
630.968	14897.029
631.096	14891.942
631.224	14872.567
631.352	15037.567
631.480	14938.192
631.608	15133.144
631.737	14934.327
631.865	15057.462
631.993	15076.115
632.121	15172.221
632.249	15004.962
632.377	14983.519
632.505	15058.125
632.633	15052.904
632.762	15025.048
632.890	14982.779
633.018	15008.404
633.146	14988.673
633.274	14975.625
633.402	15005.692
633.530	15005.769
633.658	15017.606
633.787	15016.308
633.915	14971.471
634.043	15012.260
634.171	15018.125
634.299	14999.798
634.427	14954.817
634.555	15221.279
634.683	14958.856
634.812	14941.654
634.940	14889.077
635.068	14926.231
635.196	14896.221
635.324	14875.538
635.452	14891.327
635.580	14982.885
635.708	14821.010
635.837	14842.663
635.965	14817.519
636.093	14789.212
636.221	14742.058
636.349	14692.019
636.477	14664.250
636.605	14703.538
636.733	14658.760
636.862	14598.606
636.990	14630.029
637.118	14569.221
637.246	14535.423
637.374	14691.212
637.502	14500.625
637.630	14457.952
637.758	14465.087
637.887	14379.413
638.015	14528.548
638.143	14433.865
638.271	14335.317
638.399	14379.990
638.527	14284.654
638.655	14285.337
638.783	14281.462
638.912	14319.163
639.040	14191.365
639.168	14154.635
639.296	14172.375
639.424	14249.606
639.552	14147.673
639.680	14179.067
639.808	14130.606
639.937	14076.558
640.065	14051.000
640.193	14076.500
640.321	14175.471
640.449	14138.712
640.577	14040.221
640.705	14078.817
640.833	13996.596
640.962	14089.212
641.090	13982.317
641.218	14004.029
641.346	14086.212
641.474	14009.962
641.602	13981.135
641.730	13977.356
641.858	13946.529
641.987	13953.058
642.115	14130.365
642.243	13956.798
642.371	14133.788
642.499	13950.779
642.627	13995.712
642.755	13932.423
642.883	13974.250
643.012	13953.846
643.140	14011.567
643.268	13953.221
643.396	13891.202
643.524	13938.471
643.652	14038.000
643.780	13938.029
643.908	13941.913
644.037	13989.837
644.165	13988.346
644.293	14084.077
644.421	13885.837
644.549	13932.221
644.677	13944.212
644.805	13878.721
644.933	13847.740
645.062	13924.231
645.190	14020.327
645.318	13910.760
645.446	13827.154
645.574	13805.250
645.702	13871.904
645.830	13847.394
645.958	13757.865
646.087	13759.635
646.215	13724.125
646.343	13717.115
646.471	13947.067
646.599	13728.750
646.727	13672.712
646.855	13705.625
646.983	13680.231
647.112	13763.365
647.240	13661.673
647.368	13688.837
647.496	13658.048
647.624	13642.952
647.752	13620.404
647.880	13566.558
648.008	13567.144
648.137	13620.308
648.265	13537.817
648.393	13572.721
648.521	13446.356
648.649	13607.721
648.777	13510.875
648.905	13446.019
649.033	13455.663
649.162	13337.413
649.290	13299.981
649.418	13297.779
649.546	13439.952
649.674	13275.817
649.802	13239.894
649.930	13143.798
650.058	13141.221
650.187	13143.740
650.315	13110.750
650.443	13151.442
650.571	13037.558
650.699	13021.702
650.827	12972.365
650.955	12952.817
651.083	13000.019
651.212	12873.394
651.340	12895.923
651.468	12831.385
651.596	12834.125
651.724	12827.740
651.852	12756.933
651.980	12759.971
652.108	12703.279
652.237	12712.375
652.365	12640.952
652.493	12613.327
652.621	12605.029
652.749	12592.538
652.877	12574.971
653.005	12586.385
653.133	12502.394
653.262	12438.885
653.390	12404.096
653.518	12537.317
653.646	12359.212
653.774	12308.615
653.902	12421.587
654.030	12359.365
654.158	12227.096
654.287	12295.019
654.415	12241.423
654.543	12236.779
654.671	12166.510
654.799	12198.692
654.927	12120.904
655.055	12101.471
655.183	12099.798
655.312	12050.462
655.440	12013.462
655.568	12043.904
655.696	12033.702
655.824	11942.894
655.952	11975.635
656.080	11877.625
656.208	11909.827
656.337	11915.260
656.465	12051.413
656.593	11844.346
656.721	11892.471
656.849	11902.173
656.977	11697.817
657.105	11736.913
657.233	11731.413
657.362	11794.279
657.490	11717.904
657.618	11641.010
657.746	11632.904
657.874	11537.365
658.002	11482.827
658.130	11444.365
658.258	11481.462
658.387	11385.798
658.515	11375.144
658.643	11355.038
658.771	11427.087
658.899	11304.971
659.027	11275.212
659.155	11288.327
659.283	11236.442
659.412	11233.913
659.540	11210.212
659.668	11218.500
659.796	11271.269
659.924	11176.712
660.052	11273.808
660.180	11181.048
660.308	11202.269
660.437	11169.856
660.565	11130.462
660.693	10993.231
660.821	11173.692
660.949	10963.356
661.077	10968.144
661.205	11136.644
661.333	10938.894
661.462	10893.010
661.590	11003.250
661.718	10894.760
661.846	10900.529
661.974	10815.856
662.102	10819.538
662.230	10809.385
662.358	10688.913
662.487	10775.087
662.615	10705.500
662.743	10721.067
662.871	10680.462
662.999	10603.154
663.127	10596.048
663.255	10566.394
663.383	10671.827
663.512	10493.375
663.640	10510.221
663.768	10563.279
663.896	10472.596
664.024	10448.087
664.152	10430.644
664.280	10482.933
664.408	10366.731
664.537	10310.712
664.665	10395.010
664.793	10335.365
664.921	10316.365
665.049	10352.913
665.177	10233.846
665.305	10266.567
665.433	10245.462
665.562	10382.000
665.690	10250.077
665.818	10323.558
665.946	10132.077
666.074	10119.615
666.202	10116.865
666.330	10020.212
666.458	10475.779
666.587	10040.279
666.715	10039.712
666.843	10003.481
666.971	9988.077
667.099	9971.654
667.227	10010.673
667.355	9995.135
667.483	9870.933
667.612	9900.413
667.740	9906.192
667.868	9828.692
667.996	9799.375
668.124	9832.663
668.252	9874.269
668.380	9731.231
668.508	9765.788
668.637	9702.913
668.765	9740.942
668.893	9675.740
669.021	9624.692
669.149	9663.365
669.277	9552.635
669.405	9661.875
669.533	9617.394
669.662	9525.837
669.790	9522.625
669.918	9521.192
670.046	9615.010
670.174	9411.163
670.302	9398.933
670.430	9328.615
670.558	9397.837
670.687	9496.990
670.815	9291.135
670.943	9322.250
671.071	9194.846
671.199	9191.231
671.327	9189.558
671.455	9208.038
671.583	9143.942
671.712	9107.260
671.840	9148.673
671.968	9266.221
672.096	9156.875
672.224	9006.337
672.352	8950.577
672.480	8911.760
672.608	8950.875
672.737	8898.462
672.865	8843.106
672.993	8826.510
673.121	8807.019
673.249	8766.481
673.377	8706.913
673.505	8670.894
673.633	8732.317
673.762	8620.548
673.890	8619.327
674.018	8638.712
674.146	8559.750
674.274	8540.000
674.402	8593.596
674.530	8509.260
674.658	8460.625
674.787	8432.596
674.915	8565.875
675.043	8422.173
675.171	8396.260
675.299	8305.923
675.427	8305.317
675.555	8294.971
675.683	8279.260
675.812	8214.788
675.940	8228.298
676.068	8131.808
676.196	8151.856
676.324	8100.221
676.452	8067.885
676.580	8009.106
676.708	7992.875
676.837	8006.433
676.965	8061.721
677.093	8092.154
677.221	7938.587
677.349	7854.510
677.477	7921.837
677.605	7800.846
677.733	7821.952
677.862	7797.827
677.990	7760.529
678.118	7825.913
678.246	7747.029
678.374	7775.625
678.502	7673.683
678.630	7619.577
678.758	7611.625
678.887	7745.260
679.015	7508.096
679.143	7480.519
679.271	7488.615
679.399	7458.952
679.527	7513.096
679.655	7522.288
679.783	7379.308
679.912	7403.769
680.040	7521.731
680.168	7338.558
680.296	7353.327
680.424	7295.692
680.552	7265.962
680.680	7239.904
680.808	7220.471
680.937	7179.288
681.065	7241.231
681.193	7125.827
681.321	7116.192
681.449	7162.067
681.577	7115.683
681.705	7049.500
681.833	7079.558
681.962	7047.433
682.090	6993.490
682.218	6985.260
682.346	6989.250
682.474	6925.481
682.602	6922.462
682.730	6954.298
682.858	6884.058
682.987	6898.615
683.115	6902.481
683.243	6834.510
683.371	6806.606
683.499	6771.673
683.627	6818.846
683.755	6763.990
683.883	6744.471
684.012	6737.596
684.140	6683.279
684.268	6678.087
684.396	6771.971
684.524	6644.288
684.652	6689.183
684.780	6631.529
684.908	6626.192
685.037	6619.375
685.165	6582.644
685.293	6657.106
685.421	6567.462
685.549	6559.827
685.677	6500.750
685.805	6535.221
685.933	6481.481
686.062	6472.385
686.190	6441.981
686.318	6457.173
686.446	6387.385
686.574	6364.865
686.702	6415.731
686.830	6325.000
686.958	6398.077
687.087	6314.163
687.215	6295.385
687.343	6310.510
687.471	6408.163
687.599	6217.317
687.727	6196.894
687.855	6177.202
687.983	6130.163
688.112	6200.846
688.240	6152.731
688.368	6133.952
688.496	6088.183
688.624	6057.692
688.752	6209.096
688.880	6065.346
689.008	6035.548
689.137	6025.144
689.265	5971.558
689.393	5946.750
689.521	5969.827
689.649	6017.567
689.777	5930.875
689.905	5996.433
690.033	5846.240
690.162	5828.202
690.290	5860.000
690.418	5797.663
690.546	5848.067
690.674	5841.240
690.802	5828.029
690.930	5775.538
691.058	5765.481
691.187	5697.192
691.315	5674.096
691.443	5657.327
691.571	5697.558
691.699	5641.625
691.827	5584.673
691.955	5619.538
692.083	5580.125
692.212	5588.952
692.340	5558.942
692.468	5597.875
692.596	5565.365
692.724	5484.106
692.852	5523.606
692.980	5496.808
693.108	5534.212
693.237	5413.962
693.365	5417.125
693.493	5364.519
693.621	5402.077
693.749	5333.433
693.877	5389.904
694.005	5280.385
694.133	5252.625
694.262	5321.971
694.390	5231.135
694.518	5239.673
694.646	5206.769
694.774	5139.913
694.902	5153.231
695.030	5151.779
695.158	5134.048
695.287	5112.298
695.415	5085.779
695.543	5091.644
695.671	5004.173
695.799	5118.500
695.927	5044.288
696.055	5034.721
696.183	4968.048
696.312	5130.769
696.440	4961.173
696.568	4954.346
696.696	4855.750
696.824	4828.856
696.952	4849.625
697.080	4845.154
697.208	4760.442
697.337	4790.317
697.465	4770.048
697.593	4712.125
697.721	4841.558
697.849	4697.606
697.977	4724.933
698.105	4754.471
698.233	4715.192
698.362	4623.010
698.490	4738.837
698.618	4586.038
698.746	4585.923
698.874	4639.365
699.002	4579.971
699.130	4584.231
699.258	4540.798
699.387	4477.163
699.515	4495.702
699.643	4530.615
699.771	4574.154
699.899	4429.288
700.027	4387.712
700.155	4464.788
700.283	4332.106
700.412	4371.327
700.540	4381.635
700.668	4434.808
700.796	4301.423
700.924	4343.154
701.052	4332.058
701.180	4304.096
701.308	4227.144
701.437	4198.144
701.565	4199.673
701.693	4244.510
701.821	4383.788
701.949	4147.327
702.077	4153.163
702.205	4202.433
702.333	4127.115
702.462	4106.779
702.590	4138.298
702.718	4030.837
702.846	4220.500
702.974	4024.721
703.102	3999.740
703.230	4027.875
703.358	3975.385
703.487	3950.442
703.615	3954.135
703.743	3905.548
703.871	3895.577
703.999	3894.798
704.127	3871.192
704.255	3856.442
704.383	3856.481
704.512	3910.913
704.640	3874.567
704.768	3903.000
704.896	3794.462
705.024	3723.231
705.152	3751.606
705.280	3799.269
705.408	3706.337
705.537	3675.673
705.665	3692.269
705.793	3687.692
705.921	3651.000
706.049	3618.077
706.177	3638.865
706.305	3580.173
706.433	3615.433
706.562	3583.481
706.690	3578.673
706.818	3593.721
706.946	3526.077
707.074	3485.731
707.202	3444.010
707.330	3473.481
707.458	3441.808
707.587	3414.962
707.715	3436.683
707.843	3467.865
707.971	3430.183
708.099	3368.029
708.227	3356.606
708.355	3358.173
708.483	3325.279
708.612	3341.577
708.740	3302.798
708.868	3284.058
708.996	3338.721
709.124	3320.115
709.252	3279.298
709.380	3290.029
709.508	3233.913
709.637	3253.375
709.765	3241.019
709.893	3264.452
710.021	3193.856
710.149	3282.260
710.277	3129.154
710.405	3172.971
710.533	3143.865
710.662	3128.115
710.790	3246.192
710.918	3086.404
711.046	3141.183
711.174	3095.404
711.302	3125.673
711.430	3073.212
711.558	3111.683
711.687	3081.894
711.815	3023.740
711.943	3008.144
712.071	3003.490
712.199	3013.865
712.327	3094.548
712.455	2980.202
712.583	3126.817
712.712	2984.567
712.840	3007.683
712.968	2936.846
713.096	2927.500
713.224	2913.365
713.352	2897.173
713.480	2861.048
713.608	2846.750
713.737	2826.548
713.865	2889.654
713.993	2863.154
714.121	2818.202
714.249	2785.788
714.377	2789.587
714.505	2781.577
714.633	2801.913
714.762	2754.250
714.890	2756.038
715.018	2736.308
715.146	2788.779
715.274	2715.298
715.402	2723.144
715.530	2701.144
715.658	2737.692
715.787	2705.202
715.915	2785.029
716.043	2669.760
716.171	2795.587
716.299	2627.538
716.427	2712.933
716.555	2617.875
716.683	2623.173
716.812	2600.923
716.940	2568.625
717.068	2575.471
717.196	2748.635
717.324	2598.981
717.452	2581.837
717.580	2628.433
717.708	2552.606
717.837	2556.077
717.965	2581.913
718.093	2557.202
718.221	2571.519
718.349	2586.308
718.477	2505.875
718.605	2587.413
718.733	2510.933
718.862	2538.058
718.990	2495.760
719.118	2537.885
719.246	2470.548
719.374	2461.856
719.502	2486.942
719.630	2528.375
719.758	2468.865
719.887	2431.952
720.015	2448.298
720.143	2467.510
720.271	2418.894
720.399	2437.298
720.527	2416.250
720.655	2438.163
720.783	2398.500
720.912	2385.923
721.040	2388.981
721.168	2403.769
721.296	2367.933
721.424	2359.317
721.552	2346.413
721.680	2360.125
721.808	2345.269
721.937	2321.346
722.065	2321.990
722.193	2302.769
722.321	2306.856
722.449	2299.337
722.577	2276.856
722.705	2262.971
722.833	2270.981
722.962	2244.692
723.090	2241.087
723.218	2227.144
723.346	2241.856
723.474	2222.115
723.602	2211.423
723.730	2196.125
723.858	2184.096
723.987	2209.423
724.115	2184.865
724.243	2190.058
724.371	2151.798
724.499	2182.413
724.627	2150.221
724.755	2148.529
724.883	2138.413
725.012	2136.731
725.140	2135.529
725.268	2120.356
725.396	2075.240
725.524	2101.654
725.652	2069.865
725.780	2072.010
725.908	2063.548
726.037	2048.904
726.165	2039.731
726.293	2030.625
726.421	2023.923
726.549	2020.692
726.677	2009.712
726.805	1997.413
726.933	1990.538
727.062	1997.596
727.190	1960.423
727.318	1954.558
727.446	1963.452
727.574	1949.837
727.702	1929.154
727.830	1926.481
727.958	1938.481
728.087	1940.221
728.215	1908.365
728.343	1888.298
728.471	1889.798
728.599	1883.596
728.727	1891.365
728.855	1886.385
728.983	1853.962
729.112	1839.846
729.240	1845.510
729.368	1827.808
729.496	1832.442
729.624	1837.337
729.752	1836.471
729.880	1813.837
730.008	1811.712
730.137	1800.260
730.265	1796.221
730.393	1789.452
730.521	1773.260
730.649	1763.346
730.777	1761.788
730.905	1761.231
731.033	1724.038
731.162	1742.615
731.290	1745.356
731.418	1738.163
731.546	1735.394
731.674	1722.183
731.802	1712.731
731.930	1718.490
732.058	1684.173
732.187	1685.019
732.315	1711.856
732.443	1685.221
732.571	1682.240
732.699	1667.788
732.827	1686.038
732.955	1665.913
733.083	1654.769
733.212	1643.567
733.340	1659.375
733.468	1637.596
733.596	1620.913
733.724	1630.106
733.852	1614.625
733.980	1603.538
734.108	1614.048
734.237	1620.712
734.365	1610.096
734.493	1589.529
734.621	1595.644
734.749	1596.250
734.877	1574.500
735.005	1569.433
735.133	1580.135
735.262	1559.240
735.390	1551.154
735.518	1555.029
735.646	1557.192
735.774	1554.433
735.902	1538.990
736.030	1532.356
736.158	1535.067
736.287	1546.971
736.415	1527.702
736.543	1500.548
736.671	1511.837
736.799	1491.490
736.927	1505.529
737.055	1505.779
737.183	1482.990
737.312	1458.788
737.440	1477.346
737.568	1463.596
737.696	1483.894
737.824	1474.808
737.952	1690.394
738.080	1453.788
738.208	1445.385
738.337	1440.250
738.465	1440.048
738.593	1432.538
738.721	1426.163
738.849	1435.221
738.977	1412.183
739.105	1431.115
739.233	1423.010
739.362	1412.279
739.490	1400.577
739.618	1403.558
739.746	1387.692
739.874	1387.144
740.002	1387.567
740.130	1366.038
740.258	1368.529
740.387	1371.692
740.515	1379.413
740.643	1338.279
740.771	1364.048
740.899	1344.837
741.027	1343.346
741.155	1341.356
741.283	1332.538
741.412	1344.962
741.540	1322.510
741.668	1315.067
741.796	1326.952
741.924	1315.644
742.052	1302.548
742.180	1315.298
742.308	1285.567
742.437	1296.452
742.565	1280.817
742.693	1282.077
742.821	1290.827
742.949	1263.115
743.077	1246.625
743.205	1252.163
743.333	1248.490
743.462	1261.567
743.590	1245.548
743.718	1236.221
743.846	1239.000
743.974	1250.163
744.102	1230.760
744.230	1228.519
744.358	1226.346
744.487	1208.817
744.615	1201.788
744.743	1214.683
744.871	1206.096
744.999	1196.058
745.127	1207.663
745.255	1185.317
745.383	1188.721
745.512	1174.183
745.640	1168.500
745.768	1175.192
745.896	1171.212
746.024	1162.510
746.152	1171.808
746.280	1161.529
746.408	1158.202
746.537	1138.731
746.665	1148.625
746.793	1142.760
746.921	1130.279
747.049	1138.567
747.177	1120.798
747.305	1132.337
747.433	1121.712
747.562	1107.385
747.690	1126.913
747.818	1109.654
747.946	1103.721
748.074	1095.625
748.202	1095.798
748.330	1082.615
748.458	1081.067
748.587	1088.115
748.715	1084.721
748.843	1071.106
748.971	1057.433
749.099	1070.990
749.227	1075.567
749.355	1087.596
749.483	1048.731
749.612	1073.817
749.740	1057.192
749.868	1046.404
749.996	1041.577
750.124	1054.817
750.252	1029.240
750.380	1032.490
750.508	1043.298
750.637	1027.135
750.765	1022.442
750.893	1018.760
751.021	1015.385
751.149	1022.481
751.277	1007.212
751.405	1000.087
751.533	1013.808
751.662	996.260
751.790	991.712
751.918	992.962
752.046	985.769
752.174	977.500
752.302	966.644
752.430	958.308
752.558	968.173
752.687	969.154
752.815	966.000
752.943	964.923
753.071	947.731
753.199	956.942
753.327	966.712
753.455	941.048
753.583	928.144
753.712	931.038
753.840	943.490
753.968	933.933
754.096	929.702
754.224	920.702
754.352	914.462
754.480	927.856
754.608	914.029
754.737	920.231
754.865	910.548
754.993	908.760
755.121	904.356
755.249	886.990
755.377	872.048
755.505	883.183
755.633	878.173
755.762	874.558
755.890	888.875
756.018	884.394
756.146	861.154
756.274	862.712
756.402	859.558
756.530	883.913
756.658	857.788
756.787	843.971
756.915	843.942
757.043	840.356
757.171	845.048
757.299	837.538
757.427	834.048
757.555	824.808
757.683	832.519
757.812	835.558
757.940	821.442
758.068	818.250
758.196	815.913
758.324	811.135
758.452	816.337
758.580	813.538
758.708	804.712
758.837	819.923
758.965	809.865
759.093	803.865
759.221	781.462
759.349	778.029
759.477	776.192
759.605	771.740
759.733	793.529
759.862	770.510
759.990	772.558
760.118	763.356
760.246	780.010
760.374	777.462
760.502	766.192
760.630	758.337
760.758	762.423
760.887	750.827
761.015	746.913
761.143	751.183
761.271	750.779
761.399	742.942
761.527	749.962
761.655	755.663
761.783	717.490
761.912	728.827
762.040	740.346
762.168	721.615
762.296	726.029
762.424	729.865
762.552	728.644
762.680	700.837
762.808	736.702
762.937	719.942
763.065	710.279
763.193	699.221
763.321	697.279
763.449	697.029
763.577	684.625
763.705	708.856
763.833	700.923
763.962	683.404
764.090	688.644
764.218	685.115
764.346	680.038
764.474	679.231
764.602	671.933
764.730	675.625
764.858	678.875
764.987	672.865
765.115	669.481
765.243	655.173
765.371	656.510
765.499	649.712
765.627	660.096
765.755	654.529
765.883	650.971
766.012	647.346
766.140	640.856
766.268	642.394
766.396	644.058
766.524	643.567
766.652	626.683
766.780	628.644
766.908	638.048
767.037	642.240
767.165	626.317
767.293	635.163
767.421	632.529
767.549	611.144
767.677	641.740
767.805	614.471
767.933	621.500
768.062	612.288
768.190	605.029
768.318	601.798
768.446	606.192
768.574	599.635
768.702	603.240
768.830	601.856
768.958	599.625
769.087	604.490
769.215	603.712
769.343	598.490
769.471	605.702
769.599	593.452
769.727	592.058
769.855	581.933
769.983	609.173
770.112	586.635
770.240	574.279
770.368	575.423
770.496	569.462
770.624	577.404
770.752	567.942
770.880	583.663
771.008	566.942
771.137	564.894
771.265	557.750
771.393	551.692
771.521	562.808
771.649	568.125
771.777	594.625
771.905	616.817
772.033	597.346
772.162	545.654
772.290	548.337
772.418	552.548
772.546	544.702
772.674	546.663
772.802	531.356
772.930	549.000
773.058	535.731
773.187	535.596
773.315	538.596
773.443	536.058
773.571	536.952
773.699	531.894
773.827	535.365
773.955	548.904
774.083	532.260
774.212	520.740
774.340	530.163
774.468	527.721
774.596	519.317
774.724	523.500
774.852	528.365
774.980	519.413
775.108	519.990
775.237	509.788
775.365	508.625
775.493	521.663
775.621	505.644
775.749	512.923
775.877	516.000
776.005	511.971
776.133	504.135
776.262	505.423
776.390	509.990
776.518	497.952
776.646	502.952
776.774	499.096
776.902	494.615
777.030	488.212
777.158	487.231
777.287	502.894
777.415	490.740
777.543	494.510
777.671	496.846
777.799	484.519
777.927	488.154
778.055	493.538
778.183	480.096
778.312	481.048
778.440	477.577
778.568	501.740
778.696	489.048
778.824	481.471
778.952	487.846
779.080	484.058
779.208	477.298
779.337	478.750
779.465	494.240
779.593	474.519
779.721	480.750
779.849	479.673
779.977	474.077
780.105	470.596
780.233	466.269
780.362	471.173
780.490	455.817
780.618	468.288
780.746	464.327
780.874	459.308
781.002	462.115
781.130	459.087
781.258	459.365
781.387	471.144
781.515	461.808
781.643	455.346
781.771	457.048
781.899	465.490
782.027	456.779
782.155	450.769
782.283	450.587
782.412	454.962
782.540	457.827
782.668	455.240
782.796	450.913
782.924	460.000
783.052	454.260
783.180	439.298
783.308	442.904
783.437	435.779
783.565	450.365
783.693	443.192
783.821	446.548
783.949	443.010
784.077	441.135
784.205	436.029
784.333	432.529
784.462	438.769
784.590	429.875
784.718	427.462
784.846	438.154
784.974	445.163
785.102	425.404
785.230	427.548
785.358	426.038
785.487	425.240
785.615	419.404
785.743	422.260
785.871	429.625
785.999	428.606
786.127	430.163
786.255	422.058
786.383	419.538
786.512	421.135
786.640	420.510
786.768	413.260
786.896	420.490
787.024	401.971
787.152	414.625
787.280	428.837
787.408	414.212
787.537	420.135
787.665	418.731
787.793	406.760
787.921	409.346
788.049	406.231
788.177	405.490
788.305	399.808
788.433	408.981
788.562	401.433
788.690	398.404
788.818	406.490
788.946	401.288
789.074	391.981
789.202	395.298
789.330	394.087
789.458	406.990
789.587	395.587
789.715	396.212
789.843	402.250
789.971	396.279
790.099	386.212
790.227	384.490
790.355	390.135
790.483	398.577
790.612	393.663
790.740	396.760
790.868	388.173
790.996	403.952
791.124	402.240
791.252	393.452
791.380	385.856
791.508	387.913
791.637	385.202
791.765	374.096
791.893	385.385
792.021	387.288
792.149	378.058
792.277	381.740
792.405	372.673
792.533	381.048
792.662	378.856
792.790	375.317
792.918	384.952
793.046	375.125
793.174	379.721
793.302	376.923
793.430	369.452
793.558	384.596
793.687	371.087
793.815	368.163
793.943	388.144
794.071	366.481
794.199	371.510
794.327	369.990
794.455	379.990
794.583	371.308
794.712	368.356
794.840	372.115
794.968	364.942
795.096	374.183
795.224	356.202
795.352	396.019
795.480	352.010
795.608	355.106
795.737	348.952
795.865	351.904
795.993	362.317
796.121	359.673
796.249	357.413
796.377	355.923
796.505	354.635
796.633	358.913
796.762	347.077
796.890	346.327
797.018	351.952
797.146	356.240
797.274	354.423
797.402	347.587
797.530	340.635
797.658	347.846
797.787	362.625
797.915	353.154
798.043	340.692
798.171	348.875
798.299	337.635
798.427	346.692
798.555	357.202
798.683	338.375
798.812	370.500
798.940	384.654
799.068	368.519
799.196	347.529
799.324	344.913
799.452	332.856
799.580	335.625
799.708	339.144
799.837	333.875
799.965	326.606
800.093	333.490
800.221	328.240
800.349	333.192
800.477	329.971
800.605	326.317
800.733	337.587
800.862	331.096
800.990	329.529
801.118	326.298
801.246	328.106
801.374	334.769
801.502	321.712
801.630	321.933
801.758	329.394
801.887	314.442
802.015	328.519
802.143	314.875
802.271	322.135
802.399	312.779
802.527	314.356
802.655	324.308
802.783	310.404
802.912	314.846
803.040	313.962
803.168	310.942
803.296	325.433
803.424	313.615
803.552	315.038
803.680	315.673
803.808	308.990
803.937	309.769
804.065	312.038
804.193	314.885
804.321	331.163
804.449	324.971
804.577	316.029
804.705	330.587
804.833	309.856
804.962	306.885
805.090	307.644
805.218	300.490
805.346	299.721
805.474	316.702
805.602	317.558
805.730	323.250
805.858	298.183
805.987	298.452
806.115	306.308
806.243	306.990
806.371	301.731
806.499	297.481
806.627	294.933
806.755	299.048
806.883	302.154
807.012	297.962
807.140	306.163
807.268	290.048
807.396	300.260
807.524	292.683
807.652	301.942
807.780	296.856
807.908	299.375
808.037	310.087
808.165	305.875
808.293	286.971
808.421	292.288
808.549	293.827
808.677	295.346
808.805	306.471
808.933	288.385
809.062	292.327
809.190	302.452
809.318	297.750
809.446	286.654
809.574	299.885
809.702	291.481
809.830	285.827
809.958	293.288
810.087	295.163
810.215	285.808
810.343	293.894
810.471	287.625
810.599	284.683
810.727	292.019
810.855	282.596
810.983	287.942
811.112	283.058
811.240	284.856
811.368	283.635
811.496	285.750
811.624	284.923
811.752	288.625
811.880	294.798
812.008	291.779
812.137	294.894
812.265	285.942
812.393	282.500
812.521	278.433
812.649	286.577
812.777	274.212
812.905	289.327
813.033	289.077
813.162	278.894
813.290	278.269
813.418	281.452
813.546	281.413
813.674	275.154
813.802	276.317
813.930	275.231
814.058	273.038
814.187	275.221
814.315	272.846
814.443	275.000
814.571	277.567
814.699	264.731
814.827	274.163
814.955	272.048
815.083	264.817
815.212	276.683
815.340	260.394
815.468	279.308
815.596	268.885
815.724	273.058
815.852	276.500
815.980	274.077
816.108	273.058
816.237	270.462
816.365	281.125
816.493	269.288
816.621	278.298
816.749	259.779
816.877	325.962
817.005	279.077
817.133	270.567
817.262	267.654
817.390	261.462
817.518	271.173
817.646	258.971
817.774	258.894
817.902	255.779
818.030	261.163
818.158	269.952
818.287	262.471
818.415	258.173
818.543	259.154
818.671	261.885
818.799	257.058
818.927	256.385
819.055	286.625
819.183	265.971
819.312	278.173
819.440	262.394
819.568	257.452
819.696	256.865
819.824	258.221
819.952	259.529
820.080	255.577
820.208	256.606
820.337	256.837
820.465	254.019
820.593	257.481
820.721	254.606
820.849	253.423
820.977	254.048
821.105	255.721
821.233	245.096
821.362	258.654
821.490	249.923
821.618	258.288
821.746	261.423
821.874	249.808
822.002	244.115
822.130	250.808
822.258	254.452
822.387	250.596
822.515	255.769
822.643	249.663
822.771	248.462
822.899	253.519
823.027	242.923
823.155	249.356
823.283	258.154
823.412	257.327
823.540	244.538
823.668	244.356
823.796	246.269
823.924	244.769
824.052	245.587
824.180	249.413
824.308	242.971
824.437	255.365
824.565	248.721
824.693	235.240
824.821	238.798
824.949	248.731
825.077	245.010
825.205	235.625
825.333	242.394
825.462	252.279
825.590	240.212
825.718	239.000
825.846	243.548
825.974	245.538
826.102	237.865
826.230	237.712
826.358	246.519
826.487	245.183
826.615	238.413
826.743	228.827
826.871	242.788
826.999	233.010
827.127	244.442
827.255	240.596
827.383	236.615
827.512	231.510
827.640	241.692
827.768	258.163
827.896	231.942
828.024	238.990
828.152	231.558
828.280	234.221
828.408	232.000
828.537	234.096
828.665	235.135
828.793	238.115
828.921	231.827
829.049	237.433
829.177	234.077
829.305	233.202
829.433	231.837
829.562	232.048
829.690	228.596
829.818	235.567
829.946	230.904
830.074	235.500
830.202	226.144
830.330	238.279
830.458	224.413
830.587	239.413
830.715	225.962
830.843	222.933
830.971	232.865
831.099	232.490
831.227	255.173
831.355	227.308
831.483	226.567
831.612	226.500
831.740	228.885
831.868	226.538
831.996	232.240
832.124	226.952
832.252	228.462
832.380	230.260
832.508	223.683
832.637	227.231
832.765	232.779
832.893	229.692
833.021	221.462
833.149	225.269
833.277	222.577
833.405	228.923
833.533	219.346
833.662	229.596
833.790	219.692
833.918	223.981
834.046	217.712
834.174	220.048
834.302	224.702
834.430	221.010
834.558	221.587
834.687	223.462
834.815	220.567
834.943	218.106
835.071	225.038
835.199	222.481
835.327	217.327
835.455	229.808
835.583	222.385
835.712	217.962
835.840	222.327
835.968	215.413
836.096	231.615
836.224	216.673
836.352	223.567
836.480	217.904
836.608	214.923
836.737	221.615
836.865	214.202
836.993	222.904
837.121	223.846
837.249	220.779
837.377	217.644
837.505	207.077
837.633	216.173
837.762	219.192
837.890	214.058
838.018	217.038
838.146	212.644
838.274	217.933
838.402	214.885
838.530	229.356
838.658	222.481
838.787	221.827
838.915	208.288
839.043	222.673
839.171	213.173
839.299	218.712
839.427	237.106
839.555	217.933
839.683	208.500
839.812	213.000
839.940	210.308
840.068	216.644
840.196	242.971
840.324	231.654
840.452	217.010
840.580	210.538
840.708	203.740
840.837	213.769
840.965	209.567
841.093	208.192
841.221	207.942
841.349	209.029
841.477	203.000
841.605	206.971
841.733	208.615
841.862	221.798
841.990	209.942
842.118	210.423
842.246	207.962
842.374	200.365
842.502	218.952
842.630	209.933
842.758	206.106
842.887	217.144
843.015	225.904
843.143	203.760
843.271	208.163
843.399	210.173
843.527	207.356
843.655	206.644
843.783	200.923
843.912	202.788
844.040	198.212
844.168	209.000
844.296	218.760
844.424	213.058
844.552	211.490
844.680	207.885
844.808	204.481
844.937	207.962
845.065	204.096
845.193	221.356
845.321	208.106
845.449	212.375
845.577	208.904
845.705	202.231
845.833	200.769
845.962	210.404
846.090	208.010
846.218	213.375
846.346	212.913
846.474	206.067
846.602	201.731
846.730	204.663
846.858	201.538
846.987	202.962
847.115	211.221
847.243	209.615
847.371	197.452
847.499	200.567
847.627	203.279
847.755	201.913
847.883	210.856
848.012	210.817
848.140	193.933
848.268	194.577
848.396	202.308
848.524	213.490
848.652	195.346
848.780	198.183
848.908	203.615
849.037	201.904
849.165	198.827
849.293	206.981
849.421	196.135
849.549	203.067
849.677	192.933
849.805	206.663
849.933	194.635
850.062	201.510
850.190	198.500
850.318	197.837
850.446	204.837
850.574	198.875
850.702	196.490
850.830	190.885
850.958	197.423
851.087	198.452
851.215	193.279
851.343	189.538
851.471	200.375
851.599	205.106
851.727	207.644
851.855	196.442
851.983	201.269
852.112	195.577
852.240	203.750
852.368	206.510
852.496	193.673
852.624	196.692
852.752	203.433
852.880	198.913
853.008	198.154
853.137	201.087
853.265	199.644
853.393	195.327
853.521	186.894
853.649	202.221
853.777	196.875
853.905	186.625
854.033	191.808
854.162	190.077
854.290	190.885
854.418	208.837
854.546	218.683
854.674	209.490
854.802	199.375
854.930	188.462
855.058	198.327
855.187	188.798
855.315	221.683
855.443	190.952
855.571	193.683
855.699	204.144
855.827	187.442
855.955	188.173
856.083	190.721
856.212	192.260
856.340	196.202
856.468	190.087
856.596	191.260
856.724	196.125
856.852	209.067
856.980	186.615
857.108	185.817
857.237	184.279
857.365	199.538
857.493	202.173
857.621	193.163
857.749	189.144
857.877	186.654
858.005	186.673
858.133	189.663
858.262	185.548
858.390	188.913
858.518	185.769
858.646	194.212
858.774	180.346
858.902	184.202
859.030	192.231
859.158	193.163
859.287	190.240
859.415	186.567
859.543	188.962
859.671	190.500
859.799	198.212
859.927	187.779
860.055	180.846
860.183	180.519
860.312	182.490
860.440	184.846
860.568	179.048
860.696	194.962
860.824	200.231
860.952	180.894
861.080	191.356
861.208	189.587
861.337	185.529
861.465	196.587
861.593	189.250
861.721	192.019
861.849	189.010
861.977	183.663
862.105	189.471
862.233	184.558
862.362	182.048
862.490	183.760
862.618	181.740
862.746	182.490
862.874	187.288
863.002	186.221
863.130	187.721
863.258	185.125
863.387	193.423
863.515	189.202
863.643	193.865
863.771	185.769
863.899	186.087
864.027	185.144
864.155	205.375
864.283	180.135
864.412	181.587
864.540	183.750
864.668	177.635
864.796	186.740
864.924	181.433
865.052	176.308
865.180	195.356
865.308	182.923
865.437	185.885
865.565	176.990
865.693	181.625
865.821	177.106
865.949	195.048
866.077	183.673
866.205	179.875
866.333	187.798
866.462	171.798
866.590	182.990
866.718	180.827
866.846	176.721
866.974	183.346
867.102	177.827
867.230	185.885
867.358	178.750
867.487	190.673
867.615	192.058
867.743	177.442
867.871	189.529
867.999	179.721
868.127	190.971
868.255	194.163
868.383	169.087
868.512	181.788
868.640	179.240
868.768	174.692
868.896	190.683
869.024	175.962
869.152	179.269
869.280	173.808
869.408	171.721
869.537	173.942
869.665	178.279
869.793	179.837
869.921	179.538
870.049	170.990
870.177	178.635
870.305	175.635
870.433	176.990
870.562	182.298
870.690	176.000
870.818	185.654
870.946	175.587
871.074	171.913
871.202	180.510
871.330	170.462
871.458	175.760
871.587	176.721
871.715	177.971
871.843	181.817
871.971	184.365
872.099	171.769
872.227	175.827
872.355	172.452
872.483	172.952
872.612	176.683
872.740	174.683
872.868	174.683
872.996	174.885
873.124	188.519
873.252	174.538
873.380	168.673
873.508	181.692
873.637	181.952
873.765	168.173
873.893	171.904
874.021	177.731
874.149	171.288
874.277	175.077
874.405	177.000
874.533	179.260
874.662	170.558
874.790	180.356
874.918	170.279
875.046	178.471
875.174	171.510
875.302	172.135
875.430	170.240
875.558	173.779
875.687	182.212
875.815	174.010
875.943	178.885
876.071	169.962
876.199	177.865
876.327	176.471
876.455	176.654
876.583	170.394
876.712	181.019
876.840	175.740
876.968	170.923
877.096	176.981
877.224	169.942
877.352	167.019
877.480	174.183
877.608	180.029
877.737	173.029
877.865	167.346
877.993	173.163
878.121	179.865
878.249	171.750
878.377	169.058
878.505	175.615
878.633	175.644
878.762	170.635
878.890	170.587
879.018	178.750
879.146	166.885
879.274	194.827
879.402	175.279
879.530	168.808
879.658	172.173
879.787	175.163
879.915	167.394
880.043	167.933
880.171	208.019
880.299	173.596
880.427	174.058
880.555	167.490
880.683	175.154
880.812	172.683
880.940	172.548
881.068	178.077
881.196	169.221
881.324	163.856
881.452	164.913
881.580	175.106
881.708	177.510
881.837	169.683
881.965	170.702
882.093	163.625
882.221	165.471
882.349	163.471
882.477	167.721
882.605	170.163
882.733	174.250
882.862	166.077
882.990	181.606
883.118	176.615
883.246	177.481
883.374	168.538
883.502	176.365
883.630	173.365
883.758	167.144
883.887	170.125
884.015	172.163
884.143	173.067
884.271	169.087
884.399	163.048
884.527	175.567
884.655	167.375
884.783	170.346
884.912	188.067
885.040	175.442
885.168	164.029
885.296	177.663
885.424	165.529
885.552	168.663
885.680	181.615
885.808	174.558
885.937	173.654
886.065	178.952
886.193	168.423
886.321	163.462
886.449	163.548
886.577	168.962
886.705	178.356
886.833	163.010
886.962	171.635
887.090	169.942
887.218	167.394
887.346	165.798
887.474	163.038
887.602	169.423
887.730	160.404
887.858	163.798
887.987	164.048
888.115	168.240
888.243	164.077
888.371	180.029
888.499	166.471
888.627	165.048
888.755	170.981
888.883	165.769
889.012	172.038
889.140	165.788
889.268	168.808
889.396	161.442
889.524	175.365
889.652	158.885
889.780	162.365
889.908	165.144
890.037	172.519
890.165	162.250
890.293	170.500
890.421	167.375
890.549	158.298
890.677	156.808
890.805	168.135
890.933	158.356
891.062	166.192
891.190	167.433
891.318	162.596
891.446	165.115
891.574	157.615
891.702	167.115
891.830	170.337
891.958	175.337
892.087	172.865
892.215	168.510
892.343	168.231
892.471	172.981
892.599	157.808
892.727	172.683
892.855	181.500
892.983	158.183
893.112	161.462
893.240	177.712
893.368	161.510
893.496	172.471
893.624	168.721
893.752	190.260
893.880	169.673
894.008	169.654
894.137	164.769
894.265	173.010
894.393	163.760
894.521	173.394
894.649	166.596
894.777	159.135
894.905	202.923
895.033	163.779
895.162	163.481
895.290	169.635
895.418	163.702
895.546	195.010
895.674	170.413
895.802	206.625
895.930	168.760
896.058	161.490
896.187	165.202
896.315	156.231
896.443	169.894
896.571	186.240
896.699	161.298
896.827	163.577
896.955	165.202
897.083	167.587
897.212	160.692
897.340	162.606
897.468	165.260
897.596	162.846
897.724	162.885
897.852	157.000
897.980	159.288
898.108	171.981
898.237	163.413
898.365	163.817
898.493	166.356
898.621	159.962
898.749	163.865
898.877	162.442
899.005	161.654
899.133	163.587
899.262	178.106
899.390	160.240
899.518	166.365
899.646	156.817
899.774	157.019
899.902	157.548
900.030	172.769
900.158	161.308
900.287	166.529
900.415	159.029
900.543	167.375
900.671	168.192
900.799	159.577
900.927	156.942
901.055	171.231
901.183	168.154
901.312	168.644
901.440	161.327
901.568	158.423
901.696	159.087
901.824	163.308
901.952	158.423
902.080	165.885
902.208	161.923
902.337	170.837
902.465	158.260
902.593	175.837
902.721	181.923
902.849	178.913
902.977	164.596
903.105	165.096
903.233	163.740
903.362	157.058
903.490	171.288
903.618	163.952
903.746	157.885
903.874	163.125
904.002	162.260
904.130	173.683
904.258	155.394
904.387	167.144
904.515	152.788
904.643	163.490
904.771	162.163
904.899	159.317
905.027	167.827
905.155	163.808
905.283	157.625
905.412	175.221
905.540	166.654
905.668	161.587
905.796	165.375
905.924	162.644
906.052	162.269
906.180	166.269
906.308	157.317
906.437	158.212
906.565	164.712
906.693	169.587
906.821	157.587
906.949	161.865
907.077	156.067
907.205	169.077
907.333	151.375
907.462	156.875
907.590	162.317
907.718	162.981
907.846	165.048
907.974	157.269
908.102	165.125
908.230	164.712
908.358	154.673
908.487	156.250
908.615	167.962
908.743	168.356
908.871	165.721
908.999	157.683
909.127	161.510
909.255	169.433
909.383	155.317
909.512	158.298
909.640	169.529
909.768	160.606
909.896	165.846
910.024	167.529
910.152	168.654
910.280	167.587
910.408	159.067
910.537	158.375
910.665	164.692
910.793	167.163
910.921	169.077
911.049	168.885
911.177	171.452
911.305	163.548
911.433	188.885
911.562	165.067
911.690	165.827
911.818	166.067
911.946	167.173
912.074	168.663
912.202	163.827
912.330	178.038
912.458	158.240
912.587	165.087
912.715	167.837
912.843	179.404
912.971	166.913
913.099	184.750
913.227	172.990
913.355	170.644
913.483	179.125
913.612	176.865
913.740	194.885
913.868	168.615
