70_140_wo_Pol_at_750.00nm_cut_at_1179.00Y_01.dat
03.07.2023
11:15:58
cut middle at Y: 1179.00
top cursor: 1231 down cursor: 1127 mean of: 104 lines , 2560 datapoints
wavelength(nm)	intensity[arb. units]
585.996	28565.817
586.124	28129.942
586.252	28164.567
586.380	28150.577
586.508	28261.500
586.637	28424.240
586.765	28392.356
586.893	28539.519
587.021	28554.635
587.149	28663.558
587.277	28728.712
587.405	28689.298
587.533	28865.067
587.662	28910.490
587.790	28909.019
587.918	28869.683
588.046	28873.702
588.174	28954.442
588.302	29012.846
588.430	29081.538
588.558	29013.221
588.687	29068.202
588.815	29103.423
588.943	28992.933
589.071	29111.740
589.199	29133.385
589.327	29149.154
589.455	29121.750
589.583	29088.462
589.712	29099.471
589.840	29051.615
589.968	29087.413
590.096	29177.875
590.224	29208.519
590.352	29293.500
590.480	29205.163
590.608	29158.337
590.737	29197.865
590.865	29220.471
590.993	29147.721
591.121	29169.490
591.249	29177.019
591.377	29244.394
591.505	29321.327
591.633	29230.644
591.762	29290.548
591.890	29311.462
592.018	29349.058
592.146	29410.183
592.274	29356.269
592.402	29357.260
592.530	29537.817
592.658	29490.663
592.787	29512.808
592.915	29613.115
593.043	29528.635
593.171	29675.029
593.299	29667.115
593.427	29644.606
593.555	29771.202
593.683	29788.250
593.812	29822.567
593.940	29918.433
594.068	29969.010
594.196	29979.317
594.324	30090.933
594.452	30318.413
594.580	30266.913
594.708	30366.404
594.837	30346.875
594.965	30512.548
595.093	30584.913
595.221	30710.962
595.349	30748.269
595.477	30766.942
595.605	30867.202
595.733	30889.500
595.862	30995.240
595.990	31021.769
596.118	31059.952
596.246	31191.846
596.374	31187.625
596.502	31301.385
596.630	31323.442
596.758	31317.567
596.887	31427.096
597.015	31459.548
597.143	31505.827
597.271	31457.798
597.399	31665.712
597.527	31571.750
597.655	31563.240
597.783	31667.596
597.912	31594.240
598.040	31692.596
598.168	31688.250
598.296	31603.231
598.424	31777.846
598.552	31619.212
598.680	31640.413
598.808	31765.356
598.937	31668.481
599.065	31687.413
599.193	31700.856
599.321	31702.971
599.449	31647.192
599.577	31610.183
599.705	31625.442
599.833	31550.808
599.962	31569.769
600.090	31616.596
600.218	31584.856
600.346	31658.096
600.474	31621.337
600.602	31543.231
600.730	31610.173
600.858	31674.471
600.987	31778.788
601.115	31673.606
601.243	31750.356
601.371	31787.837
601.499	31787.548
601.627	31950.760
601.755	31907.538
601.883	31931.000
602.012	31877.163
602.140	31995.442
602.268	32005.529
602.396	32221.173
602.524	32224.029
602.652	32405.779
602.780	32369.106
602.908	32479.596
603.037	32663.721
603.165	32688.433
603.293	32778.385
603.421	32859.529
603.549	32920.538
603.677	32984.240
603.805	33154.452
603.933	33254.221
604.062	33421.038
604.190	33527.721
604.318	33577.654
604.446	33670.769
604.574	33801.538
604.702	33803.981
604.830	33984.760
604.958	33989.731
605.087	34150.923
605.215	34404.510
605.343	34463.654
605.471	34512.673
605.599	34559.202
605.727	34794.433
605.855	34845.067
605.983	34925.250
606.112	35016.721
606.240	35047.615
606.368	35089.163
606.496	35168.904
606.624	35280.452
606.752	35252.683
606.880	35387.827
607.008	35404.058
607.137	35432.365
607.265	35532.990
607.393	35567.010
607.521	35690.702
607.649	35651.106
607.777	35614.731
607.905	35632.750
608.033	35650.433
608.162	35672.500
608.290	35636.971
608.418	35791.933
608.546	35739.394
608.674	35815.288
608.802	35730.385
608.930	35716.875
609.058	35715.644
609.187	35706.952
609.315	35665.096
609.443	35645.885
609.571	35829.413
609.699	35643.760
609.827	35661.154
609.955	35697.663
610.083	35591.298
610.212	35594.163
610.340	35578.577
610.468	35624.144
610.596	35600.135
610.724	35560.712
610.852	35619.337
610.980	35582.913
611.108	35568.875
611.237	35593.587
611.365	35633.279
611.493	35541.173
611.621	35597.038
611.749	35662.115
611.877	35689.885
612.005	35741.654
612.133	35783.471
612.262	35804.375
612.390	35880.250
612.518	35940.231
612.646	35899.904
612.774	36100.144
612.902	36092.317
613.030	36165.442
613.158	36118.865
613.287	36224.183
613.415	36230.885
613.543	36295.010
613.671	36357.981
613.799	36416.981
613.927	36533.337
614.055	36613.856
614.183	36592.663
614.312	36719.827
614.440	36902.567
614.568	36946.952
614.696	37005.240
614.824	37093.202
614.952	37131.856
615.080	37239.567
615.208	37360.096
615.337	37484.385
615.465	37440.981
615.593	37684.269
615.721	37635.663
615.849	37763.240
615.977	37816.567
616.105	37868.548
616.233	37982.827
616.362	38149.490
616.490	38130.837
616.618	38273.654
616.746	38452.452
616.874	38446.712
617.002	38456.221
617.130	38566.538
617.258	38608.231
617.387	38678.635
617.515	38698.894
617.643	38748.308
617.771	38849.260
617.899	38832.404
618.027	38954.510
618.155	38986.106
618.283	39026.856
618.412	39064.894
618.540	39180.837
618.668	39168.125
618.796	39184.279
618.924	39194.740
619.052	39309.423
619.180	39213.981
619.308	39145.587
619.437	39260.913
619.565	39290.519
619.693	39282.163
619.821	39305.827
619.949	39334.452
620.077	39389.760
620.205	39379.490
620.333	39407.260
620.462	39358.356
620.590	39446.529
620.718	39407.548
620.846	39491.317
620.974	39498.635
621.102	39531.010
621.230	39496.202
621.358	39540.413
621.487	39457.865
621.615	39513.163
621.743	39383.346
621.871	39514.837
621.999	39418.952
622.127	39384.692
622.255	39431.106
622.383	39321.510
622.512	39432.067
622.640	39378.923
622.768	39419.702
622.896	39476.317
623.024	39410.942
623.152	39488.635
623.280	39522.308
623.408	39471.837
623.537	39501.740
623.665	39440.673
623.793	39541.433
623.921	39452.808
624.049	39491.490
624.177	39492.971
624.305	39485.471
624.433	39471.375
624.562	39498.865
624.690	39539.452
624.818	39401.904
624.946	39301.106
625.074	39412.740
625.202	39393.385
625.330	39374.865
625.458	39439.019
625.587	39450.413
625.715	39503.654
625.843	39377.404
625.971	39553.144
626.099	39492.798
626.227	39528.510
626.355	39487.337
626.483	39539.510
626.612	39525.462
626.740	39647.260
626.868	39560.029
626.996	39651.260
627.124	39598.106
627.252	39614.490
627.380	39664.567
627.508	39635.442
627.637	39671.952
627.765	39834.433
627.893	39793.750
628.021	39844.577
628.149	39825.260
628.277	39836.423
628.405	39887.750
628.533	39858.548
628.662	39932.673
628.790	40096.567
628.918	40032.029
629.046	40185.173
629.174	40154.923
629.302	40184.462
629.430	40254.712
629.558	40262.875
629.687	40287.144
629.815	40400.000
629.943	40533.731
630.071	40523.144
630.199	40610.413
630.327	40667.346
630.455	40641.096
630.583	40703.327
630.712	40672.596
630.840	40882.240
630.968	40863.731
631.096	40919.154
631.224	40957.971
631.352	41144.625
631.480	41075.481
631.608	41239.260
631.737	41139.808
631.865	41259.404
631.993	41237.269
632.121	41422.048
632.249	41360.712
632.377	41325.154
632.505	41400.077
632.633	41517.010
632.762	41420.683
632.890	41456.337
633.018	41367.808
633.146	41397.625
633.274	41364.817
633.402	41432.385
633.530	41479.096
633.658	41440.231
633.787	41386.942
633.915	41369.750
634.043	41416.375
634.171	41455.365
634.299	41402.510
634.427	41386.125
634.555	41555.923
634.683	41357.067
634.812	41336.442
634.940	41299.798
635.068	41261.856
635.196	41190.269
635.324	41188.875
635.452	41147.048
635.580	41213.240
635.708	41052.721
635.837	41067.394
635.965	40935.125
636.093	40876.375
636.221	40816.519
636.349	40726.471
636.477	40722.779
636.605	40718.846
636.733	40621.663
636.862	40592.577
636.990	40555.279
637.118	40371.942
637.246	40299.788
637.374	40401.317
637.502	40172.654
637.630	40092.731
637.758	40035.183
637.887	39951.846
638.015	40074.673
638.143	39903.788
638.271	39795.663
638.399	39780.250
638.527	39655.663
638.655	39629.096
638.783	39567.904
638.912	39561.471
639.040	39378.760
639.168	39318.317
639.296	39277.606
639.424	39261.452
639.552	39218.644
639.680	39225.058
639.808	39139.365
639.937	39084.923
640.065	39105.673
640.193	39091.673
640.321	39144.365
640.449	39068.096
640.577	39037.154
640.705	39007.019
640.833	38963.481
640.962	39004.423
641.090	38933.365
641.218	38908.721
641.346	38952.894
641.474	38902.317
641.602	38886.423
641.730	38889.442
641.858	38823.115
641.987	38875.933
642.115	38991.808
642.243	38797.712
642.371	38954.163
642.499	38754.567
642.627	38873.981
642.755	38876.404
642.883	38846.798
643.012	38807.269
643.140	38852.067
643.268	38870.817
643.396	38775.298
643.524	38794.433
643.652	38850.702
643.780	38849.894
643.908	38785.808
644.037	38870.827
644.165	38841.240
644.293	38939.558
644.421	38717.779
644.549	38813.490
644.677	38803.115
644.805	38729.260
644.933	38666.077
645.062	38771.212
645.190	38872.404
645.318	38785.087
645.446	38676.038
645.574	38785.212
645.702	38618.837
645.830	38707.250
645.958	38565.683
646.087	38640.471
646.215	38520.010
646.343	38481.298
646.471	38620.712
646.599	38458.471
646.727	38478.558
646.855	38392.250
646.983	38365.327
647.112	38458.202
647.240	38343.115
647.368	38317.885
647.496	38233.183
647.624	38180.288
647.752	38187.067
647.880	38121.846
648.008	38046.067
648.137	38070.433
648.265	38030.837
648.393	38069.394
648.521	37911.250
648.649	37935.394
648.777	37779.058
648.905	37738.154
649.033	37726.856
649.162	37538.481
649.290	37442.625
649.418	37396.846
649.546	37548.375
649.674	37323.029
649.802	37277.212
649.930	37197.404
650.058	37059.846
650.187	37076.856
650.315	36915.490
650.443	36922.346
650.571	36795.933
650.699	36741.462
650.827	36620.298
650.955	36476.971
651.083	36472.856
651.212	36394.510
651.340	36341.500
651.468	36306.029
651.596	36250.942
651.724	36193.827
651.852	36014.202
651.980	36027.865
652.108	35861.875
652.237	35880.144
652.365	35706.827
652.493	35687.558
652.621	35572.740
652.749	35532.644
652.877	35481.048
653.005	35423.288
653.133	35363.471
653.262	35225.740
653.390	35116.731
653.518	35233.798
653.646	34954.365
653.774	34879.202
653.902	34968.692
654.030	34811.462
654.158	34761.154
654.287	34716.183
654.415	34610.356
654.543	34652.019
654.671	34484.913
654.799	34452.317
654.927	34345.058
655.055	34269.029
655.183	34294.462
655.312	34141.577
655.440	34094.019
655.568	34013.740
655.696	34029.913
655.824	33922.702
655.952	33849.750
656.080	33699.375
656.208	33734.788
656.337	33653.750
656.465	33740.760
656.593	33495.490
656.721	33519.481
656.849	33484.808
656.977	33264.019
657.105	33219.779
657.233	33181.567
657.362	33218.596
657.490	33049.404
657.618	32955.413
657.746	32924.125
657.874	32634.635
658.002	32599.413
658.130	32390.442
658.258	32375.202
658.387	32306.798
658.515	32239.721
658.643	32193.279
658.771	32176.788
658.899	32100.615
659.027	31934.683
659.155	31897.452
659.283	31809.471
659.412	31732.885
659.540	31709.990
659.668	31724.760
659.796	31662.163
659.924	31617.327
660.052	31654.019
660.180	31617.596
660.308	31637.654
660.437	31531.462
660.565	31346.808
660.693	31164.433
660.821	31293.394
660.949	31045.538
661.077	30989.096
661.205	31134.683
661.333	30905.029
661.462	30813.519
661.590	30787.481
661.718	30629.337
661.846	30612.721
661.974	30459.519
662.102	30507.269
662.230	30314.808
662.358	30230.192
662.487	30240.760
662.615	30196.788
662.743	30112.010
662.871	30058.038
662.999	29895.894
663.127	29883.548
663.255	29764.856
663.383	29827.885
663.512	29642.260
663.640	29616.913
663.768	29583.394
663.896	29484.058
664.024	29438.635
664.152	29378.654
664.280	29389.740
664.408	29252.865
664.537	29187.135
664.665	29138.952
664.793	29133.856
664.921	29021.596
665.049	29089.567
665.177	28906.692
665.305	28884.288
665.433	28887.481
665.562	28878.894
665.690	28670.519
665.818	28836.538
665.946	28578.606
666.074	28503.038
666.202	28445.471
666.330	28454.683
666.458	28639.433
666.587	28266.106
666.715	28226.750
666.843	28137.298
666.971	28121.952
667.099	28134.212
667.227	28121.846
667.355	28066.577
667.483	27960.865
667.612	27963.962
667.740	27828.779
667.868	27805.279
667.996	27753.154
668.124	27697.481
668.252	27710.577
668.380	27517.654
668.508	27484.740
668.637	27410.731
668.765	27374.913
668.893	27294.010
669.021	27201.221
669.149	27199.952
669.277	27021.404
669.405	27125.337
669.533	27039.077
669.662	26908.885
669.790	26816.923
669.918	26793.548
670.046	26825.154
670.174	26624.423
670.302	26509.163
670.430	26453.779
670.558	26382.019
670.687	26506.740
670.815	26254.163
670.943	26226.038
671.071	26074.817
671.199	26013.856
671.327	26028.673
671.455	25995.587
671.583	25851.154
671.712	25805.298
671.840	25746.981
671.968	25818.087
672.096	25701.817
672.224	25528.183
672.352	25420.192
672.480	25282.163
672.608	25247.337
672.737	25173.106
672.865	25099.510
672.993	25001.731
673.121	24901.510
673.249	24845.327
673.377	24753.308
673.505	24682.442
673.633	24654.106
673.762	24560.202
673.890	24503.923
674.018	24515.798
674.146	24332.558
674.274	24284.298
674.402	24207.942
674.530	24120.577
674.658	23988.933
674.787	23896.875
674.915	23943.221
675.043	23823.365
675.171	23665.769
675.299	23583.173
675.427	23483.558
675.555	23441.231
675.683	23385.240
675.812	23275.663
675.940	23153.769
676.068	23089.317
676.196	23097.760
676.324	22924.240
676.452	22811.567
676.580	22797.346
676.708	22738.798
676.837	22640.346
676.965	22605.346
677.093	22610.760
677.221	22441.500
677.349	22248.288
677.477	22263.721
677.605	22086.981
677.733	22093.462
677.862	22001.865
677.990	21939.644
678.118	21886.173
678.246	21785.394
678.374	21778.875
678.502	21593.548
678.630	21515.048
678.758	21514.346
678.887	21545.779
679.015	21273.894
679.143	21226.298
679.271	21184.808
679.399	21122.462
679.527	21075.894
679.655	21073.538
679.783	20894.538
679.912	20839.327
680.040	20972.644
680.168	20724.385
680.296	20684.923
680.424	20640.692
680.552	20518.538
680.680	20437.827
680.808	20363.798
680.937	20339.135
681.065	20282.779
681.193	20199.346
681.321	20128.740
681.449	20128.442
681.577	20035.433
681.705	19956.288
681.833	19917.856
681.962	19823.231
682.090	19774.183
682.218	19694.212
682.346	19658.317
682.474	19596.288
682.602	19527.433
682.730	19532.827
682.858	19443.288
682.987	19386.452
683.115	19374.904
683.243	19271.096
683.371	19231.183
683.499	19121.385
683.627	19118.721
683.755	19054.077
683.883	18992.529
684.012	18947.606
684.140	18901.019
684.268	18892.106
684.396	18920.654
684.524	18791.442
684.652	18760.308
684.780	18699.654
684.908	18638.769
685.037	18604.163
685.165	18581.385
685.293	18567.462
685.421	18485.519
685.549	18409.635
685.677	18328.596
685.805	18312.808
685.933	18214.346
686.062	18150.279
686.190	18081.231
686.318	18052.077
686.446	17970.029
686.574	17916.365
686.702	17938.558
686.830	17788.135
686.958	17847.308
687.087	17739.692
687.215	17712.183
687.343	17667.048
687.471	17767.154
687.599	17497.760
687.727	17477.740
687.855	17368.029
687.983	17345.356
688.112	17358.875
688.240	17250.529
688.368	17262.048
688.496	17131.038
688.624	17066.971
688.752	17178.760
688.880	17024.692
689.008	16971.606
689.137	16904.221
689.265	16801.038
689.393	16765.529
689.521	16734.385
689.649	16787.731
689.777	16650.058
689.905	16687.231
690.033	16499.317
690.162	16455.558
690.290	16486.173
690.418	16340.096
690.546	16355.827
690.674	16304.481
690.802	16267.760
690.930	16201.125
691.058	16133.760
691.187	16014.529
691.315	16027.500
691.443	15955.077
691.571	15935.048
691.699	15866.471
691.827	15769.346
691.955	15742.212
692.083	15671.337
692.212	15617.962
692.340	15591.077
692.468	15588.231
692.596	15532.308
692.724	15418.817
692.852	15416.798
692.980	15406.990
693.108	15389.308
693.237	15235.096
693.365	15183.788
693.493	15109.279
693.621	15079.327
693.749	15009.490
693.877	14979.904
694.005	14847.558
694.133	14798.702
694.262	14816.221
694.390	14682.308
694.518	14660.212
694.646	14645.269
694.774	14521.462
694.902	14455.933
695.030	14424.125
695.158	14382.788
695.287	14304.000
695.415	14266.596
695.543	14207.558
695.671	14101.433
695.799	14229.231
695.927	14063.394
696.055	14033.942
696.183	13932.067
696.312	14100.288
696.440	13877.731
696.568	13858.750
696.696	13695.048
696.824	13608.933
696.952	13578.587
697.080	13539.750
697.208	13469.856
697.337	13412.587
697.465	13375.471
697.593	13281.250
697.721	13364.788
697.849	13180.298
697.977	13181.346
698.105	13218.356
698.233	13107.048
698.362	12989.587
698.490	13077.048
698.618	12870.769
698.746	12860.481
698.874	12906.212
699.002	12798.327
699.130	12760.462
699.258	12692.885
699.387	12576.721
699.515	12610.288
699.643	12544.077
699.771	12560.221
699.899	12414.115
700.027	12354.885
700.155	12404.827
700.283	12232.365
700.412	12246.702
700.540	12225.587
700.668	12268.404
700.796	12100.125
700.924	12062.529
701.052	12033.067
701.180	12002.981
701.308	11895.077
701.437	11825.952
701.565	11837.837
701.693	11814.404
701.821	11934.125
701.949	11655.106
702.077	11676.471
702.205	11664.231
702.333	11550.740
702.462	11489.740
702.590	11509.192
702.718	11366.981
702.846	11506.769
702.974	11269.212
703.102	11245.087
703.230	11234.279
703.358	11150.317
703.487	11109.404
703.615	11055.625
703.743	11019.298
703.871	10987.837
703.999	10922.615
704.127	10861.250
704.255	10813.048
704.383	10822.837
704.512	10801.048
704.640	10752.587
704.768	10747.202
704.896	10597.577
705.024	10518.577
705.152	10493.500
705.280	10513.087
705.408	10390.442
705.537	10349.692
705.665	10304.990
705.793	10255.990
705.921	10234.817
706.049	10137.365
706.177	10151.019
706.305	10093.990
706.433	10089.519
706.562	10034.856
706.690	9981.471
706.818	9922.067
706.946	9846.202
707.074	9776.077
707.202	9717.942
707.330	9692.308
707.458	9664.760
707.587	9625.260
707.715	9604.471
707.843	9596.442
707.971	9579.779
708.099	9421.365
708.227	9403.865
708.355	9389.038
708.483	9330.077
708.612	9316.327
708.740	9255.385
708.868	9203.587
708.996	9225.288
709.124	9190.942
709.252	9154.404
709.380	9096.077
709.508	9018.481
709.637	9026.894
709.765	8981.837
709.893	8984.029
710.021	8865.606
710.149	8988.721
710.277	8812.606
710.405	8784.212
710.533	8744.923
710.662	8709.250
710.790	8795.923
710.918	8643.298
711.046	8677.654
711.174	8575.221
711.302	8613.615
711.430	8522.308
711.558	8521.577
711.687	8471.250
711.815	8408.808
711.943	8356.933
712.071	8342.000
712.199	8324.519
712.327	8381.673
712.455	8224.933
712.583	8422.817
712.712	8228.346
712.840	8238.846
712.968	8119.096
713.096	8076.163
713.224	8039.096
713.352	8032.779
713.480	7942.577
713.608	7906.067
713.737	7895.731
713.865	7950.346
713.993	7865.240
714.121	7845.173
714.249	7777.327
714.377	7747.990
714.505	7697.750
714.633	7719.154
714.762	7661.529
714.890	7624.942
715.018	7610.865
715.146	7621.644
715.274	7525.019
715.402	7505.606
715.530	7482.375
715.658	7505.760
715.787	7459.750
715.915	7513.356
716.043	7382.298
716.171	7480.096
716.299	7289.692
716.427	7374.769
716.555	7252.663
716.683	7226.654
716.812	7200.096
716.940	7176.712
717.068	7128.183
717.196	7304.894
717.324	7092.183
717.452	7093.337
717.580	7122.250
717.708	6975.529
717.837	6978.788
717.965	6983.135
718.093	6933.240
718.221	6894.654
718.349	6955.317
718.477	6838.490
718.605	6934.885
718.733	6823.279
718.862	6853.615
718.990	6717.442
719.118	6781.510
719.246	6669.933
719.374	6630.067
719.502	6677.365
719.630	6738.596
719.758	6567.327
719.887	6558.135
720.015	6570.913
720.143	6575.635
720.271	6441.308
720.399	6508.144
720.527	6423.644
720.655	6501.731
720.783	6363.250
720.912	6314.885
721.040	6323.048
721.168	6314.106
721.296	6208.231
721.424	6209.183
721.552	6176.750
721.680	6230.683
721.808	6180.298
721.937	6152.740
722.065	6146.615
722.193	6078.481
722.321	6035.769
722.449	6049.702
722.577	5976.154
722.705	5956.163
722.833	5945.385
722.962	5936.317
723.090	5885.663
723.218	5863.087
723.346	5883.173
723.474	5804.019
723.602	5779.202
723.730	5719.817
723.858	5708.298
723.987	5700.144
724.115	5681.000
724.243	5684.519
724.371	5599.856
724.499	5585.865
724.627	5599.135
724.755	5552.769
724.883	5616.202
725.012	5683.240
725.140	5524.942
725.268	5421.442
725.396	5479.000
725.524	5514.702
725.652	5378.894
725.780	5489.452
725.908	5330.135
726.037	5304.567
726.165	5300.596
726.293	5237.010
726.421	5229.433
726.549	5249.038
726.677	5214.788
726.805	5131.346
726.933	5160.337
727.062	5113.269
727.190	5073.538
727.318	5064.298
727.446	5042.269
727.574	4974.144
727.702	4986.394
727.830	5007.904
727.958	4967.288
728.087	5014.125
728.215	5052.644
728.343	4890.346
728.471	4919.913
728.599	5004.865
728.727	4824.740
728.855	4811.788
728.983	4777.212
729.112	4784.125
729.240	4760.990
729.368	4725.135
729.496	4753.558
729.624	4713.106
729.752	4655.712
729.880	4628.240
730.008	4622.856
730.137	4627.760
730.265	4594.385
730.393	4757.106
730.521	4692.971
730.649	4498.885
730.777	4448.481
730.905	4477.317
731.033	4416.885
731.162	4515.702
731.290	4496.250
731.418	4396.442
731.546	4386.452
731.674	4359.913
731.802	4304.327
731.930	4404.212
732.058	4430.817
732.187	4312.635
732.315	4313.721
732.443	4385.750
732.571	4284.269
732.699	4269.577
732.827	4270.760
732.955	4201.673
733.083	4162.029
733.212	4206.260
733.340	4110.337
733.468	4108.952
733.596	4118.365
733.724	4099.856
733.852	4109.106
733.980	4098.865
734.108	4213.760
734.237	4061.673
734.365	4046.635
734.493	4037.990
734.621	3988.702
734.749	3995.269
734.877	3990.923
735.005	3972.846
735.133	3907.240
735.262	4006.404
735.390	3891.519
735.518	3889.231
735.646	3958.490
735.774	3910.885
735.902	3922.135
736.030	3824.519
736.158	3815.962
736.287	3840.067
736.415	3782.904
736.543	3799.115
736.671	3748.587
736.799	3764.288
736.927	3733.192
737.055	3821.250
737.183	3678.654
737.312	3668.663
737.440	3665.731
737.568	3754.625
737.696	3702.462
737.824	3630.144
737.952	3887.115
738.080	3566.750
738.208	3627.125
738.337	3570.365
738.465	3577.587
738.593	3564.817
738.721	3535.471
738.849	3583.548
738.977	3500.663
739.105	3495.885
739.233	3490.712
739.362	3442.635
739.490	3453.654
739.618	3478.192
739.746	3469.846
739.874	3403.760
740.002	3415.202
740.130	3387.894
740.258	3338.913
740.387	3408.567
740.515	3350.038
740.643	3360.567
740.771	3420.683
740.899	3299.933
741.027	3250.923
741.155	3264.558
741.283	3241.904
741.412	3357.885
741.540	3284.423
741.668	3235.442
741.796	3280.365
741.924	3179.779
742.052	3333.808
742.180	3174.913
742.308	3139.154
742.437	3178.558
742.565	3130.981
742.693	3230.462
742.821	3123.029
742.949	3070.837
743.077	3117.240
743.205	3027.529
743.333	3076.269
743.462	3061.279
743.590	3007.144
743.718	3054.519
743.846	2987.663
743.974	3026.250
744.102	2963.481
744.230	3006.183
744.358	2956.144
744.487	2960.413
744.615	2915.077
744.743	2927.221
744.871	2905.779
744.999	2949.394
745.127	2870.596
745.255	2839.106
745.383	2885.000
745.512	2838.135
745.640	2815.856
745.768	2809.308
745.896	2877.317
746.024	2819.846
746.152	2780.442
746.280	2833.837
746.408	2772.000
746.537	2841.750
746.665	2756.144
746.793	2714.567
746.921	2693.327
747.049	2734.144
747.177	2689.577
747.305	2890.808
747.433	2666.404
747.562	2643.567
747.690	2709.048
747.818	2717.577
747.946	2628.106
748.074	2607.135
748.202	2634.250
748.330	2627.673
748.458	2603.154
748.587	2589.490
748.715	2651.567
748.843	2560.788
748.971	2562.663
749.099	2570.740
749.227	2573.740
749.355	2598.404
749.483	2527.019
749.612	2582.221
749.740	2550.288
749.868	2536.827
749.996	2541.712
750.124	2572.971
750.252	2515.038
750.380	2501.519
750.508	2496.115
750.637	2474.298
750.765	2503.615
750.893	2480.788
751.021	2458.173
751.149	2469.740
751.277	2437.606
751.405	2430.788
751.533	2438.673
751.662	2401.269
751.790	2421.885
751.918	2395.779
752.046	2395.000
752.174	2360.606
752.302	2338.865
752.430	2342.644
752.558	2353.837
752.687	2340.481
752.815	2345.106
752.943	2322.644
753.071	2305.654
753.199	2313.404
753.327	2315.808
753.455	2269.115
753.583	2274.442
753.712	2251.442
753.840	2265.837
753.968	2243.038
754.096	2241.327
754.224	2236.981
754.352	2201.606
754.480	2224.500
754.608	2208.933
754.737	2192.798
754.865	2186.183
754.993	2184.029
755.121	2173.981
755.249	2147.048
755.377	2114.038
755.505	2157.135
755.633	2132.010
755.762	2102.538
755.890	2103.375
756.018	2092.750
756.146	2083.952
756.274	2055.346
756.402	2060.952
756.530	2070.221
756.658	2054.990
756.787	2018.567
756.915	2015.096
757.043	1993.731
757.171	2010.558
757.299	2014.894
757.427	1974.423
757.555	1976.510
757.683	1983.106
757.812	1970.587
757.940	1950.596
758.068	1956.029
758.196	1940.933
758.324	1938.644
758.452	1925.308
758.580	1914.365
758.708	1917.202
758.837	1921.721
758.965	1901.798
759.093	1898.250
759.221	1865.933
759.349	1853.019
759.477	1851.971
759.605	1836.856
759.733	1839.837
759.862	1824.000
759.990	1833.702
760.118	1810.596
760.246	1820.913
760.374	1817.173
760.502	1800.731
760.630	1787.000
760.758	1767.548
760.887	1775.769
761.015	1764.298
761.143	1765.317
761.271	1756.000
761.399	1737.202
761.527	1747.077
761.655	1749.019
761.783	1713.798
761.912	1700.779
762.040	1716.510
762.168	1694.135
762.296	1688.875
762.424	1676.106
762.552	1682.510
762.680	1654.452
762.808	1679.558
762.937	1663.779
763.065	1631.644
763.193	1628.365
763.321	1617.962
763.449	1615.933
763.577	1599.683
763.705	1617.625
763.833	1608.298
763.962	1584.250
764.090	1586.433
764.218	1568.865
764.346	1570.279
764.474	1571.115
764.602	1551.721
764.730	1551.529
764.858	1541.077
764.987	1545.173
765.115	1523.327
765.243	1517.913
765.371	1514.337
765.499	1504.413
765.627	1502.192
765.755	1502.596
765.883	1485.769
766.012	1487.952
766.140	1468.904
766.268	1462.731
766.396	1470.490
766.524	1470.115
766.652	1436.058
766.780	1457.404
766.908	1451.721
767.037	1453.250
767.165	1435.250
767.293	1435.644
767.421	1427.663
767.549	1404.192
767.677	1435.240
767.805	1399.894
767.933	1404.125
768.062	1392.010
768.190	1387.510
768.318	1395.010
768.446	1369.096
768.574	1362.885
768.702	1368.625
768.830	1363.500
768.958	1339.663
769.087	1355.115
769.215	1342.077
769.343	1341.442
769.471	1349.587
769.599	1336.952
769.727	1329.154
769.855	1313.519
769.983	1336.538
770.112	1301.519
770.240	1292.115
770.368	1288.087
770.496	1283.298
770.624	1297.163
770.752	1275.731
770.880	1290.865
771.008	1268.452
771.137	1272.423
771.265	1267.452
771.393	1244.952
771.521	1251.827
771.649	1260.413
771.777	1281.048
771.905	1293.846
772.033	1271.692
772.162	1235.317
772.290	1234.356
772.418	1228.817
772.546	1222.971
772.674	1225.462
772.802	1206.106
772.930	1211.519
773.058	1207.981
773.187	1201.558
773.315	1197.250
773.443	1188.625
773.571	1184.269
773.699	1188.606
773.827	1185.067
773.955	1207.779
774.083	1176.173
774.212	1165.712
774.340	1159.875
774.468	1162.240
774.596	1147.798
774.724	1167.433
774.852	1164.154
774.980	1146.375
775.108	1148.192
775.237	1131.721
775.365	1134.115
775.493	1131.096
775.621	1127.962
775.749	1124.106
775.877	1137.038
776.005	1117.019
776.133	1116.000
776.262	1110.115
776.390	1102.221
776.518	1093.125
776.646	1095.221
776.774	1084.058
776.902	1072.404
777.030	1080.808
777.158	1080.894
777.287	1099.038
777.415	1070.673
777.543	1071.894
777.671	1082.721
777.799	1067.971
777.927	1068.433
778.055	1060.971
778.183	1050.125
778.312	1056.673
778.440	1043.692
778.568	1062.221
778.696	1058.462
778.824	1047.154
778.952	1046.096
779.080	1041.260
779.208	1031.442
779.337	1032.500
779.465	1031.663
779.593	1023.971
779.721	1021.038
779.849	1017.202
779.977	1020.587
780.105	1014.135
780.233	1009.519
780.362	999.817
780.490	982.250
780.618	1002.106
780.746	994.683
780.874	989.683
781.002	994.308
781.130	983.885
781.258	981.375
781.387	983.990
781.515	980.337
781.643	964.990
781.771	968.615
781.899	975.308
782.027	964.000
782.155	961.692
782.283	960.769
782.412	960.010
782.540	965.760
782.668	945.452
782.796	949.413
782.924	955.971
783.052	950.933
783.180	932.875
783.308	944.010
783.437	935.125
783.565	942.183
783.693	935.240
783.821	934.250
783.949	929.298
784.077	919.279
784.205	926.337
784.333	911.077
784.462	922.115
784.590	902.529
784.718	899.529
784.846	908.231
784.974	917.779
785.102	906.058
785.230	896.048
785.358	891.433
785.487	892.933
785.615	887.721
785.743	880.058
785.871	893.452
785.999	887.067
786.127	885.077
786.255	878.577
786.383	876.096
786.512	884.760
786.640	868.298
786.768	854.962
786.896	865.587
787.024	850.163
787.152	861.269
787.280	871.481
787.408	852.779
787.537	858.740
787.665	856.721
787.793	844.500
787.921	843.192
788.049	837.288
788.177	842.894
788.305	839.837
788.433	839.404
788.562	828.740
788.690	830.029
788.818	836.635
788.946	818.779
789.074	817.760
789.202	821.471
789.330	806.077
789.458	816.240
789.587	812.904
789.715	817.144
789.843	818.365
789.971	804.365
790.099	799.183
790.227	793.394
790.355	797.048
790.483	796.183
790.612	798.000
790.740	803.231
790.868	789.058
790.996	792.029
791.124	806.606
791.252	792.471
791.380	775.683
791.508	780.163
791.637	785.990
791.765	767.288
791.893	769.096
792.021	780.163
792.149	769.452
792.277	771.731
792.405	760.413
792.533	767.250
792.662	762.894
792.790	758.577
792.918	768.269
793.046	756.615
793.174	750.433
793.302	747.221
793.430	744.125
793.558	747.731
793.687	747.173
793.815	742.827
793.943	750.962
794.071	736.692
794.199	728.365
794.327	724.510
794.455	740.442
794.583	731.452
794.712	727.106
794.840	724.154
794.968	719.000
795.096	728.712
795.224	709.231
795.352	750.135
795.480	706.452
795.608	708.038
795.737	705.942
795.865	699.750
795.993	700.135
796.121	697.413
796.249	694.144
796.377	697.375
796.505	700.029
796.633	696.510
796.762	689.962
796.890	682.404
797.018	693.317
797.146	692.500
797.274	686.308
797.402	681.375
797.530	672.644
797.658	674.346
797.787	688.615
797.915	677.375
798.043	666.615
798.171	670.663
798.299	657.538
798.427	669.548
798.555	669.202
798.683	660.212
798.812	681.327
798.940	702.346
799.068	687.240
799.196	654.067
799.324	655.587
799.452	635.423
799.580	642.413
799.708	644.837
799.837	633.740
799.965	636.202
800.093	631.394
800.221	634.154
800.349	634.144
800.477	623.433
800.605	622.654
800.733	638.846
800.862	622.087
800.990	628.298
801.118	619.779
801.246	621.740
801.374	621.240
801.502	615.760
801.630	607.538
801.758	618.452
801.887	604.500
802.015	607.538
802.143	597.375
802.271	598.038
802.399	594.683
802.527	584.135
802.655	595.548
802.783	592.692
802.912	593.135
803.040	585.913
803.168	578.096
803.296	585.192
803.424	586.885
803.552	597.500
803.680	589.538
803.808	579.971
803.937	582.452
804.065	577.029
804.193	578.587
804.321	593.654
804.449	581.587
804.577	582.952
804.705	591.221
804.833	569.731
804.962	558.962
805.090	569.106
805.218	558.913
805.346	558.827
805.474	569.308
805.602	568.481
805.730	569.548
805.858	549.779
805.987	552.817
806.115	552.038
806.243	556.692
806.371	554.288
806.499	551.183
806.627	539.375
806.755	544.106
806.883	547.837
807.012	540.077
807.140	543.058
807.268	533.058
807.396	534.327
807.524	541.510
807.652	545.423
807.780	534.625
807.908	535.625
808.037	543.144
808.165	542.048
808.293	519.058
808.421	529.481
808.549	525.471
808.677	523.067
808.805	538.548
808.933	522.413
809.062	524.385
809.190	538.260
809.318	526.663
809.446	515.433
809.574	526.067
809.702	512.837
809.830	509.865
809.958	520.606
810.087	518.038
810.215	510.394
810.343	517.250
810.471	509.567
810.599	504.019
810.727	514.346
810.855	499.038
810.983	507.538
811.112	503.423
811.240	502.202
811.368	503.250
811.496	503.317
811.624	500.577
811.752	503.538
811.880	513.721
812.008	501.010
812.137	504.135
812.265	498.644
812.393	495.952
812.521	485.740
812.649	494.038
812.777	488.846
812.905	500.288
813.033	495.962
813.162	484.000
813.290	484.288
813.418	483.510
813.546	485.779
813.674	480.019
813.802	481.721
813.930	477.144
814.058	472.221
814.187	476.029
814.315	472.144
814.443	473.462
814.571	476.356
814.699	466.971
814.827	472.760
814.955	467.683
815.083	463.423
815.212	467.577
815.340	463.212
815.468	471.788
815.596	457.096
815.724	458.731
815.852	469.865
815.980	459.135
816.108	462.356
816.237	460.712
816.365	463.990
816.493	460.596
816.621	466.933
816.749	449.000
816.877	510.981
817.005	469.519
817.133	451.731
817.262	457.644
817.390	444.385
817.518	455.635
817.646	436.288
817.774	440.981
817.902	439.298
818.030	441.990
818.158	443.231
818.287	437.538
818.415	436.288
818.543	438.212
818.671	441.327
818.799	437.481
818.927	429.490
819.055	462.375
819.183	435.577
819.312	451.452
819.440	436.510
819.568	425.740
819.696	432.923
819.824	433.183
819.952	430.635
820.080	425.721
820.208	423.279
820.337	425.923
820.465	429.375
820.593	424.154
820.721	424.029
820.849	416.154
820.977	417.317
821.105	420.356
821.233	414.846
821.362	422.048
821.490	409.683
821.618	423.788
821.746	426.538
821.874	414.663
822.002	400.510
822.130	412.990
822.258	416.192
822.387	411.442
822.515	415.231
822.643	408.298
822.771	409.433
822.899	406.615
823.027	407.038
823.155	410.279
823.283	421.173
823.412	423.587
823.540	402.894
823.668	391.654
823.796	405.365
823.924	396.933
824.052	396.183
824.180	402.317
824.308	397.625
824.437	408.817
824.565	401.577
824.693	387.096
824.821	391.135
824.949	401.596
825.077	392.615
825.205	380.192
825.333	392.077
825.462	391.202
825.590	388.923
825.718	386.154
825.846	388.683
825.974	388.269
826.102	392.385
826.230	392.567
826.358	392.183
826.487	395.317
826.615	384.096
826.743	372.346
826.871	394.500
826.999	379.779
827.127	389.288
827.255	375.990
827.383	374.481
827.512	369.962
827.640	378.875
827.768	396.029
827.896	374.077
828.024	381.144
828.152	373.769
828.280	379.250
828.408	365.346
828.537	378.885
828.665	371.067
828.793	370.385
828.921	369.038
829.049	370.942
829.177	371.500
829.305	367.327
829.433	369.740
829.562	366.885
829.690	369.394
829.818	370.481
829.946	366.490
830.074	368.221
830.202	359.010
830.330	372.250
830.458	354.606
830.587	373.163
830.715	360.779
830.843	351.625
830.971	367.125
831.099	365.019
831.227	386.558
831.355	356.904
831.483	356.038
831.612	358.269
831.740	353.798
831.868	353.788
831.996	359.365
832.124	357.635
832.252	360.712
832.380	349.731
832.508	353.788
832.637	353.481
832.765	359.010
832.893	352.115
833.021	352.510
833.149	344.058
833.277	348.087
833.405	354.500
833.533	341.029
833.662	350.442
833.790	344.183
833.918	347.471
834.046	343.654
834.174	341.288
834.302	348.413
834.430	335.942
834.558	341.442
834.687	350.279
834.815	344.760
834.943	345.067
835.071	342.567
835.199	342.538
835.327	336.038
835.455	350.000
835.583	333.635
835.712	335.365
835.840	341.913
835.968	332.635
836.096	344.856
836.224	335.010
836.352	341.596
836.480	329.385
836.608	331.596
836.737	335.865
836.865	325.817
836.993	342.452
837.121	347.231
837.249	336.913
837.377	325.846
837.505	325.712
837.633	332.192
837.762	330.375
837.890	331.933
838.018	327.769
838.146	326.548
838.274	327.163
838.402	326.625
838.530	342.913
838.658	329.798
838.787	335.192
838.915	318.865
839.043	338.712
839.171	321.933
839.299	329.404
839.427	345.058
839.555	330.856
839.683	318.183
839.812	318.029
839.940	320.558
840.068	327.433
840.196	347.192
840.324	339.192
840.452	326.510
840.580	318.317
840.708	315.029
840.837	318.702
840.965	321.346
841.093	314.308
841.221	319.231
841.349	315.298
841.477	313.404
841.605	314.250
841.733	318.346
841.862	325.702
841.990	315.779
842.118	307.750
842.246	311.740
842.374	310.577
842.502	317.779
842.630	312.135
842.758	309.606
842.887	315.231
843.015	326.481
843.143	308.048
843.271	309.644
843.399	307.885
843.527	307.548
843.655	302.490
843.783	305.817
843.912	304.808
844.040	304.212
844.168	307.471
844.296	317.038
844.424	314.788
844.552	311.183
844.680	306.481
844.808	307.981
844.937	302.404
845.065	301.173
845.193	319.346
845.321	307.875
845.449	311.240
845.577	305.231
845.705	301.538
845.833	298.173
845.962	303.846
846.090	299.692
846.218	313.587
846.346	304.471
846.474	299.654
846.602	295.096
846.730	299.990
846.858	294.077
846.987	294.317
847.115	312.558
847.243	302.279
847.371	292.163
847.499	294.279
847.627	294.635
847.755	294.096
847.883	303.115
848.012	302.846
848.140	287.433
848.268	293.279
848.396	292.269
848.524	302.673
848.652	290.375
848.780	289.837
848.908	296.385
849.037	298.433
849.165	290.163
849.293	295.135
849.421	292.231
849.549	289.038
849.677	286.356
849.805	295.010
849.933	289.577
850.062	295.760
850.190	288.567
850.318	284.115
850.446	293.904
850.574	287.192
850.702	286.423
850.830	282.423
850.958	284.202
851.087	289.721
851.215	281.529
851.343	281.337
851.471	286.077
851.599	293.000
851.727	294.692
851.855	287.856
851.983	288.721
852.112	280.654
852.240	289.087
852.368	295.163
852.496	280.394
852.624	281.894
852.752	288.240
852.880	285.067
853.008	286.471
853.137	284.029
853.265	288.913
853.393	283.827
853.521	275.135
853.649	286.337
853.777	279.740
853.905	274.298
854.033	274.202
854.162	275.221
854.290	278.740
854.418	293.577
854.546	306.452
854.674	293.731
854.802	281.096
854.930	273.433
855.058	281.317
855.187	271.154
855.315	302.240
855.443	274.798
855.571	274.769
855.699	286.163
855.827	265.712
855.955	274.317
856.083	277.875
856.212	275.163
856.340	274.788
856.468	272.779
856.596	276.423
856.724	277.500
856.852	284.154
856.980	269.260
857.108	263.837
857.237	262.827
857.365	275.952
857.493	274.048
857.621	270.269
857.749	268.577
857.877	267.981
858.005	262.635
858.133	271.798
858.262	265.702
858.390	266.192
858.518	262.923
858.646	272.010
858.774	261.087
858.902	263.865
859.030	267.837
859.158	269.231
859.287	265.519
859.415	267.837
859.543	264.788
859.671	265.212
859.799	278.269
859.927	261.096
860.055	257.000
860.183	256.000
860.312	260.346
860.440	261.269
860.568	257.135
860.696	268.837
860.824	271.212
860.952	258.135
861.080	264.163
861.208	263.010
861.337	258.365
861.465	267.635
861.593	258.702
861.721	269.038
861.849	260.048
861.977	257.260
862.105	259.894
862.233	258.837
862.362	256.923
862.490	255.692
862.618	257.010
862.746	256.433
862.874	261.846
863.002	258.394
863.130	259.019
863.258	263.644
863.387	255.644
863.515	261.096
863.643	263.933
863.771	255.846
863.899	257.875
864.027	259.567
864.155	281.865
864.283	258.644
864.412	249.702
864.540	257.365
864.668	247.548
864.796	253.087
864.924	249.048
865.052	247.260
865.180	263.298
865.308	251.942
865.437	250.942
865.565	245.692
865.693	250.558
865.821	245.779
865.949	268.712
866.077	256.135
866.205	251.673
866.333	253.587
866.462	244.750
866.590	252.856
866.718	249.673
866.846	248.212
866.974	250.029
867.102	244.308
867.230	253.125
867.358	247.462
867.487	256.135
867.615	258.615
867.743	245.308
867.871	259.337
867.999	248.394
868.127	260.625
868.255	259.365
868.383	239.144
868.512	250.721
868.640	243.865
868.768	243.644
868.896	254.298
869.024	242.269
869.152	242.058
869.280	238.250
869.408	238.423
869.537	238.115
869.665	243.231
869.793	244.577
869.921	241.577
870.049	235.558
870.177	241.385
870.305	234.635
870.433	239.500
870.562	246.260
870.690	240.577
870.818	246.721
870.946	235.154
871.074	232.721
871.202	238.288
871.330	234.433
871.458	241.981
871.587	241.135
871.715	240.298
871.843	243.173
871.971	248.298
872.099	232.471
872.227	236.471
872.355	241.288
872.483	232.356
872.612	239.029
872.740	234.183
872.868	241.433
872.996	240.490
873.124	248.663
873.252	240.115
873.380	229.337
873.508	244.933
873.637	243.106
873.765	234.327
873.893	230.837
874.021	232.721
874.149	234.885
874.277	237.125
874.405	241.471
874.533	241.942
874.662	233.817
874.790	237.990
874.918	231.798
875.046	239.202
875.174	232.712
875.302	229.087
875.430	229.433
875.558	236.788
875.687	241.356
875.815	231.625
875.943	235.519
876.071	237.587
876.199	236.644
876.327	232.952
876.455	232.558
876.583	229.048
876.712	237.135
876.840	235.308
876.968	231.288
877.096	233.163
877.224	232.212
877.352	224.327
877.480	231.144
877.608	241.462
877.737	234.923
877.865	227.288
877.993	231.183
878.121	232.087
878.249	228.942
878.377	227.885
878.505	233.404
878.633	232.529
878.762	224.615
878.890	230.029
879.018	234.856
879.146	225.202
879.274	252.510
879.402	231.990
879.530	226.308
879.658	224.298
879.787	232.846
879.915	227.029
880.043	220.356
880.171	261.010
880.299	233.788
880.427	234.596
880.555	220.067
880.683	229.154
880.812	225.875
880.940	219.962
881.068	234.981
881.196	225.337
881.324	219.567
881.452	223.337
881.580	228.673
881.708	230.510
881.837	228.596
881.965	225.260
882.093	218.692
882.221	222.212
882.349	220.433
882.477	225.538
882.605	225.000
882.733	228.221
882.862	221.663
882.990	230.135
883.118	232.481
883.246	230.798
883.374	220.567
883.502	229.221
883.630	227.067
883.758	221.173
883.887	226.606
884.015	222.798
884.143	227.615
884.271	226.433
884.399	214.894
884.527	224.269
884.655	220.577
884.783	223.981
884.912	239.423
885.040	227.740
885.168	217.587
885.296	229.510
885.424	222.933
885.552	221.567
885.680	234.087
885.808	227.000
885.937	228.029
886.065	232.760
886.193	220.548
886.321	217.990
886.449	220.404
886.577	219.808
886.705	228.808
886.833	212.606
886.962	218.971
887.090	221.548
887.218	219.558
887.346	215.990
887.474	214.913
887.602	218.875
887.730	213.663
887.858	219.240
887.987	217.327
888.115	220.529
888.243	214.798
888.371	228.663
888.499	217.587
888.627	218.183
888.755	222.962
888.883	216.048
889.012	219.144
889.140	213.817
889.268	220.385
889.396	208.635
889.524	224.067
889.652	206.971
889.780	213.163
889.908	215.962
890.037	224.394
890.165	214.192
890.293	222.481
890.421	215.913
890.549	207.712
890.677	209.990
890.805	215.587
890.933	205.327
891.062	215.721
891.190	218.125
891.318	210.894
891.446	212.500
891.574	208.385
891.702	213.250
891.830	216.529
891.958	223.173
892.087	218.000
892.215	215.731
892.343	215.837
892.471	217.096
892.599	209.231
892.727	218.519
892.855	230.885
892.983	205.087
893.112	209.346
893.240	219.010
893.368	208.731
893.496	217.519
893.624	214.298
893.752	233.587
893.880	216.279
894.008	213.702
894.137	210.596
894.265	213.875
894.393	208.683
894.521	216.010
894.649	212.779
894.777	209.038
894.905	246.048
895.033	208.567
895.162	211.163
895.290	213.808
895.418	213.029
895.546	243.606
895.674	212.365
895.802	249.981
895.930	214.481
896.058	207.740
896.187	210.837
896.315	201.087
896.443	218.548
896.571	229.577
896.699	206.683
896.827	209.298
896.955	207.788
897.083	209.192
897.212	207.865
897.340	206.654
897.468	207.260
897.596	207.721
897.724	202.346
897.852	205.788
897.980	200.644
898.108	213.673
898.237	206.269
898.365	205.548
898.493	210.683
898.621	208.462
898.749	206.221
898.877	206.913
899.005	207.240
899.133	204.538
899.262	219.567
899.390	204.077
899.518	208.817
899.646	203.779
899.774	199.721
899.902	200.385
900.030	212.519
900.158	205.894
900.287	206.923
900.415	198.125
900.543	207.673
900.671	210.846
900.799	202.606
900.927	198.327
901.055	211.298
901.183	209.558
901.312	210.606
901.440	198.038
901.568	198.856
901.696	199.788
901.824	195.077
901.952	195.067
902.080	207.192
902.208	202.596
902.337	210.692
902.465	203.885
902.593	214.913
902.721	224.212
902.849	222.712
902.977	201.692
903.105	203.077
903.233	204.067
903.362	192.385
903.490	211.308
903.618	202.558
903.746	196.404
903.874	200.760
904.002	194.500
904.130	212.500
904.258	192.923
904.387	204.154
904.515	194.183
904.643	203.385
904.771	196.490
904.899	196.856
905.027	201.173
905.155	196.375
905.283	190.288
905.412	212.019
905.540	194.567
905.668	198.817
905.796	197.019
905.924	198.298
906.052	195.192
906.180	201.712
906.308	193.481
906.437	192.644
906.565	197.683
906.693	204.529
906.821	193.606
906.949	193.106
907.077	189.365
907.205	199.875
907.333	191.087
907.462	196.846
907.590	191.760
907.718	192.654
907.846	201.846
907.974	191.154
908.102	193.413
908.230	199.856
908.358	194.635
908.487	189.481
908.615	203.087
908.743	201.279
908.871	194.356
908.999	190.298
909.127	198.413
909.255	203.837
909.383	192.942
909.512	188.038
909.640	201.298
909.768	191.500
909.896	200.481
910.024	202.154
910.152	197.058
910.280	201.558
910.408	190.904
910.537	192.702
910.665	200.962
910.793	199.923
910.921	201.067
911.049	201.721
911.177	203.971
911.305	191.712
911.433	221.471
911.562	199.212
911.690	200.644
911.818	198.721
911.946	197.087
912.074	202.769
912.202	192.558
912.330	211.154
912.458	190.837
912.587	195.923
912.715	199.029
912.843	209.385
912.971	203.202
913.099	215.269
913.227	206.135
913.355	200.490
913.483	211.404
913.612	207.115
913.740	230.192
913.868	203.500
