sample5v_at_750.00nm_cut_at_1060.50Y_01.dat
19.06.2023
11:08:30
cut middle at Y: 1060.50
top cursor: 1109 down cursor: 1012 mean of: 97 lines , 2560 datapoints
wavelength(nm)	intensity[arb. units]
585.996	834.619
586.124	819.753
586.252	806.608
586.380	807.804
586.508	810.495
586.637	807.588
586.765	819.412
586.893	812.072
587.021	818.588
587.149	816.711
587.277	823.340
587.405	815.691
587.533	816.639
587.662	822.649
587.790	822.474
587.918	817.412
588.046	824.835
588.174	826.887
588.302	818.546
588.430	820.247
588.558	826.361
588.687	830.918
588.815	822.835
588.943	833.454
589.071	824.897
589.199	829.186
589.327	836.845
589.455	832.340
589.583	829.526
589.712	831.309
589.840	826.680
589.968	829.381
590.096	827.990
590.224	833.443
590.352	834.258
590.480	829.928
590.608	833.258
590.737	820.763
590.865	833.227
590.993	834.753
591.121	833.299
591.249	839.082
591.377	826.495
591.505	830.103
591.633	833.763
591.762	844.165
591.890	832.155
592.018	838.773
592.146	827.330
592.274	839.567
592.402	836.907
592.530	842.268
592.658	835.474
592.787	836.495
592.915	840.000
593.043	848.928
593.171	847.515
593.299	856.052
593.427	848.443
593.555	857.845
593.683	851.423
593.812	851.330
593.940	860.515
594.068	855.041
594.196	867.784
594.324	863.216
594.452	874.536
594.580	874.031
594.708	874.825
594.837	870.464
594.965	880.948
595.093	885.598
595.221	886.928
595.349	891.052
595.477	888.330
595.605	899.186
595.733	904.289
595.862	899.165
595.990	883.959
596.118	896.443
596.246	898.732
596.374	914.608
596.502	906.268
596.630	907.825
596.758	911.124
596.887	910.804
597.015	916.052
597.143	912.206
597.271	909.588
597.399	915.247
597.527	917.381
597.655	916.608
597.783	915.680
597.912	914.216
598.040	913.588
598.168	916.423
598.296	917.887
598.424	911.330
598.552	916.835
598.680	917.216
598.808	921.577
598.937	925.979
599.065	921.155
599.193	911.814
599.321	905.680
599.449	914.505
599.577	914.000
599.705	912.464
599.833	922.629
599.962	916.938
600.090	919.433
600.218	915.309
600.346	914.649
600.474	915.381
600.602	917.464
600.730	923.196
600.858	924.082
600.987	927.175
601.115	928.557
601.243	927.969
601.371	926.876
601.499	930.134
601.627	927.474
601.755	945.278
601.883	941.608
602.012	942.330
602.140	944.216
602.268	949.299
602.396	950.608
602.524	952.753
602.652	955.278
602.780	960.845
602.908	967.990
603.037	968.412
603.165	968.907
603.293	979.598
603.421	983.876
603.549	975.412
603.677	986.557
603.805	986.887
603.933	989.196
604.062	998.433
604.190	994.629
604.318	1001.701
604.446	1009.093
604.574	1005.701
604.702	1015.629
604.830	1013.536
604.958	1030.928
605.087	1036.361
605.215	1046.536
605.343	1035.206
605.471	1041.330
605.599	1036.175
605.727	1049.381
605.855	1046.629
605.983	1047.093
606.112	1061.052
606.240	1060.454
606.368	1070.443
606.496	1061.629
606.624	1055.000
606.752	1061.680
606.880	1061.052
607.008	1067.856
607.137	1071.351
607.265	1073.381
607.393	1081.423
607.521	1062.670
607.649	1071.186
607.777	1071.608
607.905	1075.918
608.033	1079.351
608.162	1071.773
608.290	1076.206
608.418	1088.041
608.546	1084.577
608.674	1088.711
608.802	1083.423
608.930	1092.928
609.058	1091.876
609.187	1088.175
609.315	1086.330
609.443	1085.959
609.571	1080.588
609.699	1085.876
609.827	1083.845
609.955	1084.454
610.083	1084.505
610.212	1081.299
610.340	1093.072
610.468	1092.505
610.596	1090.052
610.724	1090.773
610.852	1099.237
610.980	1107.278
611.108	1102.845
611.237	1095.567
611.365	1100.773
611.493	1111.639
611.621	1100.124
611.749	1113.649
611.877	1120.340
612.005	1110.206
612.133	1109.588
612.262	1122.784
612.390	1117.928
612.518	1121.722
612.646	1130.887
612.774	1141.577
612.902	1136.979
613.030	1138.165
613.158	1138.062
613.287	1152.928
613.415	1149.412
613.543	1156.557
613.671	1161.691
613.799	1156.124
613.927	1165.351
614.055	1180.990
614.183	1179.536
614.312	1174.186
614.440	1181.103
614.568	1182.732
614.696	1190.278
614.824	1198.340
614.952	1204.722
615.080	1200.433
615.208	1204.041
615.337	1218.423
615.465	1211.227
615.593	1220.598
615.721	1224.237
615.849	1220.670
615.977	1222.495
616.105	1230.928
616.233	1228.825
616.362	1238.186
616.490	1234.196
616.618	1251.474
616.746	1233.567
616.874	1258.773
617.002	1249.598
617.130	1255.526
617.258	1243.784
617.387	1249.845
617.515	1261.309
617.643	1270.546
617.771	1271.619
617.899	1265.825
618.027	1266.505
618.155	1280.093
618.283	1270.165
618.412	1274.763
618.540	1275.742
618.668	1284.289
618.796	1272.588
618.924	1296.186
619.052	1295.928
619.180	1299.433
619.308	1284.670
619.437	1296.474
619.565	1298.577
619.693	1293.670
619.821	1298.515
619.949	1301.742
620.077	1295.649
620.205	1306.216
620.333	1306.959
620.462	1312.062
620.590	1312.268
620.718	1310.031
620.846	1304.948
620.974	1309.794
621.102	1314.165
621.230	1326.247
621.358	1328.969
621.487	1321.876
621.615	1329.144
621.743	1341.505
621.871	1326.082
621.999	1326.722
622.127	1328.536
622.255	1347.495
622.383	1335.876
622.512	1346.330
622.640	1335.155
622.768	1350.299
622.896	1331.505
623.024	1337.361
623.152	1349.835
623.280	1346.619
623.408	1346.711
623.537	1345.608
623.665	1343.897
623.793	1344.010
623.921	1349.588
624.049	1349.856
624.177	1357.588
624.305	1355.247
624.433	1349.897
624.562	1357.062
624.690	1361.062
624.818	1361.567
624.946	1356.412
625.074	1342.010
625.202	1361.351
625.330	1347.340
625.458	1376.794
625.587	1373.474
625.715	1357.979
625.843	1368.464
625.971	1363.454
626.099	1369.526
626.227	1385.742
626.355	1359.918
626.483	1386.526
626.612	1376.227
626.740	1379.072
626.868	1389.897
626.996	1379.598
627.124	1391.392
627.252	1398.340
627.380	1391.948
627.508	1396.969
627.637	1402.021
627.765	1404.876
627.893	1408.722
628.021	1400.691
628.149	1415.918
628.277	1415.196
628.405	1418.165
628.533	1428.557
628.662	1418.258
628.790	1431.464
628.918	1431.216
629.046	1437.598
629.174	1432.134
629.302	1442.567
629.430	1446.711
629.558	1442.309
629.687	1439.722
629.815	1450.845
629.943	1462.495
630.071	1452.588
630.199	1459.052
630.327	1452.196
630.455	1458.278
630.583	1474.784
630.712	1473.928
630.840	1470.773
630.968	1495.557
631.096	1494.691
631.224	1482.990
631.352	1480.804
631.480	1497.206
631.608	1498.103
631.737	1491.701
631.865	1504.887
631.993	1494.825
632.121	1504.124
632.249	1511.433
632.377	1525.113
632.505	1499.515
632.633	1508.412
632.762	1520.423
632.890	1520.247
633.018	1528.227
633.146	1518.289
633.274	1523.773
633.402	1518.052
633.530	1520.320
633.658	1525.990
633.787	1515.866
633.915	1528.454
634.043	1523.134
634.171	1533.938
634.299	1545.052
634.427	1532.371
634.555	1535.299
634.683	1534.113
634.812	1527.835
634.940	1531.680
635.068	1514.371
635.196	1528.464
635.324	1537.505
635.452	1538.474
635.580	1534.691
635.708	1532.546
635.837	1533.165
635.965	1531.041
636.093	1523.103
636.221	1518.577
636.349	1527.072
636.477	1517.918
636.605	1522.351
636.733	1513.680
636.862	1511.289
636.990	1518.031
637.118	1516.196
637.246	1515.918
637.374	1504.082
637.502	1503.186
637.630	1517.021
637.758	1506.567
637.887	1521.649
638.015	1507.093
638.143	1523.299
638.271	1503.515
638.399	1509.402
638.527	1509.351
638.655	1510.918
638.783	1521.320
638.912	1517.887
639.040	1505.629
639.168	1509.876
639.296	1516.608
639.424	1508.464
639.552	1515.536
639.680	1513.392
639.808	1498.175
639.937	1511.979
640.065	1514.773
640.193	1529.361
640.321	1523.897
640.449	1532.093
640.577	1508.825
640.705	1509.464
640.833	1525.124
640.962	1531.216
641.090	1518.041
641.218	1519.546
641.346	1513.155
641.474	1519.402
641.602	1513.897
641.730	1527.856
641.858	1529.124
641.987	1521.948
642.115	1539.536
642.243	1533.567
642.371	1535.629
642.499	1527.814
642.627	1536.598
642.755	1529.742
642.883	1550.866
643.012	1539.979
643.140	1529.876
643.268	1536.639
643.396	1539.093
643.524	1559.175
643.652	1544.866
643.780	1551.948
643.908	1550.155
644.037	1549.124
644.165	1550.948
644.293	1551.979
644.421	1545.464
644.549	1554.546
644.677	1565.289
644.805	1560.907
644.933	1547.299
645.062	1555.866
645.190	1544.897
645.318	1538.959
645.446	1560.412
645.574	1559.526
645.702	1562.093
645.830	1565.113
645.958	1573.959
646.087	1566.670
646.215	1560.773
646.343	1570.619
646.471	1560.722
646.599	1570.309
646.727	1559.701
646.855	1552.536
646.983	1563.309
647.112	1570.082
647.240	1567.216
647.368	1543.000
647.496	1547.082
647.624	1541.887
647.752	1544.402
647.880	1545.887
648.008	1567.041
648.137	1540.948
648.265	1535.247
648.393	1538.320
648.521	1542.546
648.649	1531.691
648.777	1539.237
648.905	1519.670
649.033	1527.567
649.162	1516.546
649.290	1519.856
649.418	1508.670
649.546	1525.753
649.674	1524.804
649.802	1508.670
649.930	1509.485
650.058	1503.124
650.187	1517.258
650.315	1506.485
650.443	1497.948
650.571	1504.216
650.699	1508.299
650.827	1512.639
650.955	1490.722
651.083	1490.567
651.212	1493.495
651.340	1485.464
651.468	1500.629
651.596	1489.619
651.724	1502.639
651.852	1482.557
651.980	1477.804
652.108	1484.753
652.237	1470.000
652.365	1471.907
652.493	1481.649
652.621	1464.031
652.749	1473.216
652.877	1470.763
653.005	1469.216
653.133	1471.402
653.262	1463.794
653.390	1467.021
653.518	1469.124
653.646	1450.969
653.774	1448.711
653.902	1466.577
654.030	1440.649
654.158	1438.876
654.287	1447.340
654.415	1443.299
654.543	1438.485
654.671	1450.763
654.799	1435.454
654.927	1444.732
655.055	1429.691
655.183	1424.742
655.312	1419.546
655.440	1431.629
655.568	1417.186
655.696	1424.072
655.824	1430.165
655.952	1412.423
656.080	1411.979
656.208	1420.186
656.337	1412.876
656.465	1420.062
656.593	1416.041
656.721	1405.649
656.849	1405.732
656.977	1395.031
657.105	1400.371
657.233	1393.103
657.362	1394.144
657.490	1383.309
657.618	1398.237
657.746	1392.825
657.874	1382.206
658.002	1384.536
658.130	1379.485
658.258	1373.113
658.387	1367.588
658.515	1351.474
658.643	1369.021
658.771	1370.289
658.899	1364.093
659.027	1357.402
659.155	1362.866
659.283	1344.814
659.412	1344.598
659.540	1347.536
659.668	1365.186
659.796	1337.381
659.924	1336.588
660.052	1334.443
660.180	1339.639
660.308	1329.948
660.437	1316.784
660.565	1324.041
660.693	1316.454
660.821	1321.814
660.949	1326.598
661.077	1310.928
661.205	1322.216
661.333	1306.237
661.462	1311.052
661.590	1299.072
661.718	1307.670
661.846	1297.845
661.974	1300.072
662.102	1295.454
662.230	1299.289
662.358	1291.227
662.487	1291.979
662.615	1275.557
662.743	1288.474
662.871	1286.732
662.999	1280.485
663.127	1270.454
663.255	1277.577
663.383	1284.361
663.512	1281.247
663.640	1276.134
663.768	1267.206
663.896	1272.351
664.024	1260.515
664.152	1262.124
664.280	1275.093
664.408	1259.990
664.537	1247.598
664.665	1255.557
664.793	1252.278
664.921	1247.299
665.049	1240.000
665.177	1260.309
665.305	1246.691
665.433	1242.474
665.562	1241.309
665.690	1236.330
665.818	1243.433
665.946	1231.237
666.074	1237.144
666.202	1238.186
666.330	1224.000
666.458	1227.567
666.587	1229.660
666.715	1231.948
666.843	1223.010
666.971	1228.856
667.099	1228.691
667.227	1231.887
667.355	1212.928
667.483	1210.845
667.612	1210.412
667.740	1216.412
667.868	1216.320
667.996	1213.392
668.124	1210.237
668.252	1213.639
668.380	1197.567
668.508	1206.866
668.637	1207.557
668.765	1202.928
668.893	1197.423
669.021	1195.381
669.149	1190.247
669.277	1183.938
669.405	1190.062
669.533	1180.835
669.662	1188.979
669.790	1159.814
669.918	1168.928
670.046	1175.660
670.174	1165.938
670.302	1169.505
670.430	1151.093
670.558	1160.577
670.687	1152.928
670.815	1147.742
670.943	1156.763
671.071	1145.701
671.199	1149.247
671.327	1137.299
671.455	1136.113
671.583	1142.330
671.712	1116.711
671.840	1131.794
671.968	1121.969
672.096	1110.227
672.224	1113.041
672.352	1110.021
672.480	1106.959
672.608	1101.546
672.737	1103.505
672.865	1098.866
672.993	1093.443
673.121	1091.000
673.249	1092.649
673.377	1080.680
673.505	1075.629
673.633	1073.381
673.762	1080.113
673.890	1070.124
674.018	1071.948
674.146	1066.753
674.274	1059.959
674.402	1054.433
674.530	1052.722
674.658	1051.423
674.787	1030.247
674.915	1044.247
675.043	1046.845
675.171	1031.670
675.299	1019.742
675.427	1025.629
675.555	1015.938
675.683	1010.175
675.812	1008.639
675.940	1004.402
676.068	1004.835
676.196	997.722
676.324	998.062
676.452	992.887
676.580	990.340
676.708	984.165
676.837	992.515
676.965	980.567
677.093	979.835
677.221	969.680
677.349	956.639
677.477	962.866
677.605	957.969
677.733	959.021
677.862	966.536
677.990	958.701
678.118	952.454
678.246	943.268
678.374	937.887
678.502	942.959
678.630	937.608
678.758	940.206
678.887	920.804
679.015	941.887
679.143	934.887
679.271	926.773
679.399	925.701
679.527	913.763
679.655	914.835
679.783	915.206
679.912	904.639
680.040	908.165
680.168	906.010
680.296	900.454
680.424	900.196
680.552	900.794
680.680	893.258
680.808	881.856
680.937	887.629
681.065	886.124
681.193	887.866
681.321	885.402
681.449	885.907
681.577	874.433
681.705	874.660
681.833	876.474
681.962	871.732
682.090	876.175
682.218	875.876
682.346	869.918
682.474	873.041
682.602	861.959
682.730	858.784
682.858	861.423
682.987	865.402
683.115	839.258
683.243	850.546
683.371	854.485
683.499	848.763
683.627	855.309
683.755	848.392
683.883	847.825
684.012	841.804
684.140	832.351
684.268	838.526
684.396	834.464
684.524	836.412
684.652	836.608
684.780	837.660
684.908	836.021
685.037	833.938
685.165	833.784
685.293	827.804
685.421	820.701
685.549	829.619
685.677	815.567
685.805	810.680
685.933	823.732
686.062	815.072
686.190	813.660
686.318	816.784
686.446	806.412
686.574	805.515
686.702	802.784
686.830	803.938
686.958	794.124
687.087	802.701
687.215	792.732
687.343	800.320
687.471	801.474
687.599	793.959
687.727	789.959
687.855	789.402
687.983	785.876
688.112	784.412
688.240	783.784
688.368	777.887
688.496	778.093
688.624	784.392
688.752	777.289
688.880	777.330
689.008	766.897
689.137	763.495
689.265	770.392
689.393	758.031
689.521	762.196
689.649	765.258
689.777	756.103
689.905	753.948
690.033	751.299
690.162	751.979
690.290	747.495
690.418	750.619
690.546	748.103
690.674	749.155
690.802	738.381
690.930	734.485
691.058	729.825
691.187	724.598
691.315	726.371
691.443	721.515
691.571	720.474
691.699	714.412
691.827	708.753
691.955	711.515
692.083	718.371
692.212	709.588
692.340	706.031
692.468	707.567
692.596	698.423
692.724	704.206
692.852	698.258
692.980	696.031
693.108	693.979
693.237	688.722
693.365	686.588
693.493	687.856
693.621	685.660
693.749	679.979
693.877	685.031
694.005	676.753
694.133	684.546
694.262	670.309
694.390	668.155
694.518	665.371
694.646	674.351
694.774	668.474
694.902	657.186
695.030	662.021
695.158	654.402
695.287	655.876
695.415	647.330
695.543	656.763
695.671	654.639
695.799	641.608
695.927	645.763
696.055	641.701
696.183	647.010
696.312	646.155
696.440	630.990
696.568	640.773
696.696	626.670
696.824	629.918
696.952	631.505
697.080	623.691
697.208	625.753
697.337	623.041
697.465	622.196
697.593	617.918
697.721	614.216
697.849	615.526
697.977	613.268
698.105	614.124
698.233	613.402
698.362	606.680
698.490	610.206
698.618	608.742
698.746	610.412
698.874	602.887
699.002	598.969
699.130	594.608
699.258	589.361
699.387	595.691
699.515	588.639
699.643	589.196
699.771	584.763
699.899	584.237
700.027	582.959
700.155	584.711
700.283	580.526
700.412	576.680
700.540	579.124
700.668	576.546
700.796	571.206
700.924	562.278
701.052	563.701
701.180	566.175
701.308	569.588
701.437	558.567
701.565	558.763
701.693	553.443
701.821	562.351
701.949	552.371
702.077	557.227
702.205	548.124
702.333	548.196
702.462	546.856
702.590	540.330
702.718	538.619
702.846	539.691
702.974	544.031
703.102	540.732
703.230	531.062
703.358	532.103
703.487	520.969
703.615	526.784
703.743	523.670
703.871	517.804
703.999	519.144
704.127	516.093
704.255	511.598
704.383	517.784
704.512	498.371
704.640	509.351
704.768	507.464
704.896	502.701
705.024	498.948
705.152	497.381
705.280	503.495
705.408	494.814
705.537	495.897
705.665	492.216
705.793	486.062
705.921	492.753
706.049	486.763
706.177	486.670
706.305	490.845
706.433	477.155
706.562	479.082
706.690	476.433
706.818	476.309
706.946	474.103
707.074	472.144
707.202	465.619
707.330	463.670
707.458	473.649
707.587	467.330
707.715	464.773
707.843	456.835
707.971	458.567
708.099	459.165
708.227	452.464
708.355	451.619
708.483	455.990
708.612	455.113
708.740	455.598
708.868	447.639
708.996	453.691
709.124	445.866
709.252	441.381
709.380	440.897
709.508	437.701
709.637	438.680
709.765	433.134
709.893	433.990
710.021	431.907
710.149	431.113
710.277	431.330
710.405	431.402
710.533	427.330
710.662	429.505
710.790	430.196
710.918	424.258
711.046	430.062
711.174	424.010
711.302	419.629
711.430	417.969
711.558	423.247
711.687	419.918
711.815	420.979
711.943	419.443
712.071	415.577
712.199	413.887
712.327	413.680
712.455	408.320
712.583	409.103
712.712	416.175
712.840	407.052
712.968	403.825
713.096	401.515
713.224	401.340
713.352	402.887
713.480	403.289
713.608	401.588
713.737	402.701
713.865	402.165
713.993	396.371
714.121	389.433
714.249	397.010
714.377	394.515
714.505	394.845
714.633	391.959
714.762	387.186
714.890	392.052
715.018	388.351
715.146	388.175
715.274	383.464
715.402	386.938
715.530	387.701
715.658	385.866
715.787	378.649
715.915	380.887
716.043	382.381
716.171	386.412
716.299	381.072
716.427	380.670
716.555	377.577
716.683	379.340
716.812	376.536
716.940	374.897
717.068	373.845
717.196	373.186
717.324	369.237
717.452	362.103
717.580	366.515
717.708	368.485
717.837	368.474
717.965	365.186
718.093	363.515
718.221	359.907
718.349	362.474
718.477	361.866
718.605	358.351
718.733	358.000
718.862	355.588
718.990	353.155
719.118	356.464
719.246	356.278
719.374	351.588
719.502	350.227
719.630	351.907
719.758	347.371
719.887	348.062
720.015	344.093
720.143	347.155
720.271	352.866
720.399	344.784
720.527	343.485
720.655	340.928
720.783	343.072
720.912	338.546
721.040	338.381
721.168	337.196
721.296	340.052
721.424	333.330
721.552	333.134
721.680	332.103
721.808	329.907
721.937	332.361
722.065	329.763
722.193	329.670
722.321	326.773
722.449	325.567
722.577	324.299
722.705	324.113
722.833	328.113
722.962	324.495
723.090	322.588
723.218	322.907
723.346	317.062
723.474	320.979
723.602	317.557
723.730	314.289
723.858	315.443
723.987	315.567
724.115	312.546
724.243	311.814
724.371	314.155
724.499	308.351
724.627	305.113
724.755	303.227
724.883	308.876
725.012	303.402
725.140	303.371
725.268	307.701
725.396	297.165
725.524	303.113
725.652	302.124
725.780	295.691
725.908	292.062
726.037	295.845
726.165	296.660
726.293	294.165
726.421	292.103
726.549	292.474
726.677	290.196
726.805	295.196
726.933	295.567
727.062	288.361
727.190	283.289
727.318	287.711
727.446	288.722
727.574	283.577
727.702	281.948
727.830	287.691
727.958	281.711
728.087	280.144
728.215	280.691
728.343	275.155
728.471	282.206
728.599	280.186
728.727	276.660
728.855	277.557
728.983	278.443
729.112	273.010
729.240	275.495
729.368	273.835
729.496	275.351
729.624	273.938
729.752	271.443
729.880	272.969
730.008	272.485
730.137	269.948
730.265	271.711
730.393	264.732
730.521	265.887
730.649	265.309
730.777	261.907
730.905	261.588
731.033	258.041
731.162	264.309
731.290	260.289
731.418	260.392
731.546	256.598
731.674	252.722
731.802	254.784
731.930	260.526
732.058	260.320
732.187	259.402
732.315	258.072
732.443	255.948
732.571	257.113
732.699	257.278
732.827	252.856
732.955	251.979
733.083	250.794
733.212	250.711
733.340	250.485
733.468	247.505
733.596	247.237
733.724	247.680
733.852	246.732
733.980	245.742
734.108	244.804
734.237	243.948
734.365	242.196
734.493	247.866
734.621	243.278
734.749	244.515
734.877	245.649
735.005	245.464
735.133	244.608
735.262	239.897
735.390	237.454
735.518	239.773
735.646	236.577
735.774	236.598
735.902	239.763
736.030	238.464
736.158	238.041
736.287	234.340
736.415	243.134
736.543	235.711
736.671	230.072
736.799	236.309
736.927	233.381
737.055	231.175
737.183	231.990
737.312	229.041
737.440	227.835
737.568	231.155
737.696	228.278
737.824	226.165
737.952	227.495
738.080	225.804
738.208	224.639
738.337	227.381
738.465	224.608
738.593	218.608
738.721	222.742
738.849	223.268
738.977	222.103
739.105	221.876
739.233	221.134
739.362	217.505
739.490	217.381
739.618	216.969
739.746	219.237
739.874	217.629
740.002	217.464
740.130	215.897
740.258	216.619
740.387	218.299
740.515	215.577
740.643	218.000
740.771	218.495
740.899	214.289
741.027	209.010
741.155	210.196
741.283	211.814
741.412	209.268
741.540	208.423
741.668	208.041
741.796	208.814
741.924	207.010
742.052	206.371
742.180	209.515
742.308	204.784
742.437	207.732
742.565	206.433
742.693	203.814
742.821	207.959
742.949	209.330
743.077	203.588
743.205	207.649
743.333	202.031
743.462	202.206
743.590	201.897
743.718	201.309
743.846	203.670
743.974	199.474
744.102	199.701
744.230	199.577
744.358	199.278
744.487	199.742
744.615	197.464
744.743	198.031
744.871	194.299
744.999	196.990
745.127	197.412
745.255	193.196
745.383	195.124
745.512	197.144
745.640	191.680
745.768	192.165
745.896	188.021
746.024	191.557
746.152	192.897
746.280	189.711
746.408	191.175
746.537	195.691
746.665	195.340
746.793	190.237
746.921	192.773
747.049	188.371
747.177	189.371
747.305	186.804
747.433	188.711
747.562	185.990
747.690	184.794
747.818	187.722
747.946	187.206
748.074	185.887
748.202	184.371
748.330	181.711
748.458	183.969
748.587	183.639
748.715	181.969
748.843	184.124
748.971	180.907
749.099	181.216
749.227	180.082
749.355	181.155
749.483	180.505
749.612	178.237
749.740	180.340
749.868	178.433
749.996	176.742
750.124	179.216
750.252	177.619
750.380	180.062
750.508	178.361
750.637	172.732
750.765	175.907
750.893	177.289
751.021	174.835
751.149	172.443
751.277	171.000
751.405	176.443
751.533	171.464
751.662	177.948
751.790	173.289
751.918	176.907
752.046	174.072
752.174	170.505
752.302	175.784
752.430	171.546
752.558	170.464
752.687	169.392
752.815	170.227
752.943	171.216
753.071	171.082
753.199	167.072
753.327	166.536
753.455	166.866
753.583	166.299
753.712	166.598
753.840	164.309
753.968	169.598
754.096	165.351
754.224	165.113
754.352	162.031
754.480	163.876
754.608	163.722
754.737	161.227
754.865	164.041
754.993	163.186
755.121	163.155
755.249	159.979
755.377	158.546
755.505	163.010
755.633	161.443
755.762	157.443
755.890	160.588
756.018	157.804
756.146	158.918
756.274	158.165
756.402	160.536
756.530	157.619
756.658	158.144
756.787	155.608
756.915	152.701
757.043	154.041
757.171	156.557
757.299	156.701
757.427	155.330
757.555	153.330
757.683	154.216
757.812	153.670
757.940	154.103
758.068	152.691
758.196	152.835
758.324	152.309
758.452	150.649
758.580	150.969
758.708	153.361
758.837	152.649
758.965	150.773
759.093	151.052
759.221	150.670
759.349	149.711
759.477	151.763
759.605	149.155
759.733	151.938
759.862	151.392
759.990	150.794
760.118	146.062
760.246	146.031
760.374	145.887
760.502	145.443
760.630	146.485
760.758	144.856
760.887	143.701
761.015	144.753
761.143	146.000
761.271	143.711
761.399	141.495
761.527	145.021
761.655	143.526
761.783	143.825
761.912	143.021
762.040	141.175
762.168	144.742
762.296	142.763
762.424	142.072
762.552	141.505
762.680	140.577
762.808	141.938
762.937	139.876
763.065	138.907
763.193	142.309
763.321	139.938
763.449	140.412
763.577	137.340
763.705	140.649
763.833	141.474
763.962	137.969
764.090	136.526
764.218	139.629
764.346	136.454
764.474	138.753
764.602	137.320
764.730	138.722
764.858	138.351
764.987	135.474
765.115	137.784
765.243	136.103
765.371	135.289
765.499	134.216
765.627	134.155
765.755	134.598
765.883	133.938
766.012	134.856
766.140	133.701
766.268	135.794
766.396	132.876
766.524	132.588
766.652	133.392
766.780	129.443
766.908	131.361
767.037	131.454
767.165	132.134
767.293	135.227
767.421	133.835
767.549	131.608
767.677	132.351
767.805	132.959
767.933	131.763
768.062	130.072
768.190	130.412
768.318	130.619
768.446	128.753
768.574	130.546
768.702	131.165
768.830	130.835
768.958	129.598
769.087	132.505
769.215	132.062
769.343	130.320
769.471	130.289
769.599	130.567
769.727	131.186
769.855	127.103
769.983	126.804
770.112	127.412
770.240	128.856
770.368	127.340
770.496	128.629
770.624	128.526
770.752	131.464
770.880	127.742
771.008	128.072
771.137	128.371
771.265	126.289
771.393	129.052
771.521	126.454
771.649	127.742
771.777	126.443
771.905	126.588
772.033	129.979
772.162	127.082
772.290	124.237
772.418	127.660
772.546	126.412
772.674	125.320
772.802	125.845
772.930	124.701
773.058	123.031
773.187	122.505
773.315	126.598
773.443	123.361
773.571	124.186
773.699	122.082
773.827	121.845
773.955	121.938
774.083	124.969
774.212	124.309
774.340	124.515
774.468	119.588
774.596	122.753
774.724	122.485
774.852	120.423
774.980	122.113
775.108	122.701
775.237	120.691
775.365	120.814
775.493	121.979
775.621	121.031
775.749	121.227
775.877	122.155
776.005	120.763
776.133	120.588
776.262	121.031
776.390	119.887
776.518	121.031
776.646	120.866
776.774	119.320
776.902	119.392
777.030	117.495
777.158	120.206
777.287	119.629
777.415	120.289
777.543	119.381
777.671	120.423
777.799	118.598
777.927	119.948
778.055	116.722
778.183	119.155
778.312	117.763
778.440	117.546
778.568	119.052
778.696	119.381
778.824	119.887
778.952	118.485
779.080	115.835
779.208	118.062
779.337	115.577
779.465	116.464
779.593	115.990
779.721	117.835
779.849	116.216
779.977	118.062
780.105	117.299
780.233	116.361
780.362	116.670
780.490	117.093
780.618	115.784
780.746	116.876
780.874	114.309
781.002	113.340
781.130	114.454
781.258	113.845
781.387	114.804
781.515	113.526
781.643	114.495
781.771	114.845
781.899	114.443
782.027	115.825
782.155	114.433
782.283	112.381
782.412	113.794
782.540	114.124
782.668	115.062
782.796	114.711
782.924	114.763
783.052	113.268
783.180	113.351
783.308	112.402
783.437	111.784
783.565	114.588
783.693	113.691
783.821	114.784
783.949	112.742
784.077	112.546
784.205	113.722
784.333	112.495
784.462	113.371
784.590	114.134
784.718	111.309
784.846	110.505
784.974	111.876
785.102	113.959
785.230	113.361
785.358	110.629
785.487	110.784
785.615	111.021
785.743	111.227
785.871	110.907
785.999	112.505
786.127	110.907
786.255	111.598
786.383	111.124
786.512	111.443
786.640	111.072
786.768	111.649
786.896	110.227
787.024	109.835
787.152	108.876
787.280	110.113
787.408	112.134
787.537	110.289
787.665	110.093
787.793	109.062
787.921	110.691
788.049	111.113
788.177	109.701
788.305	109.773
788.433	109.732
788.562	108.753
788.690	108.897
788.818	108.691
788.946	110.113
789.074	108.887
789.202	109.392
789.330	109.598
789.458	108.845
789.587	109.784
789.715	107.711
789.843	108.546
789.971	109.000
790.099	108.165
790.227	107.711
790.355	107.856
790.483	107.938
790.612	109.196
790.740	108.371
790.868	108.959
790.996	109.093
791.124	108.577
791.252	108.258
791.380	107.887
791.508	107.443
791.637	108.784
791.765	108.124
791.893	107.299
792.021	108.567
792.149	107.959
792.277	107.897
792.405	108.165
792.533	107.794
792.662	106.866
792.790	108.299
792.918	108.062
793.046	106.402
793.174	106.969
793.302	108.515
793.430	107.649
793.558	107.495
793.687	107.103
793.815	107.186
793.943	106.546
794.071	105.340
794.199	105.227
794.327	105.711
794.455	106.351
794.583	105.351
794.712	107.680
794.840	105.887
794.968	106.320
795.096	105.577
795.224	106.351
795.352	105.186
795.480	106.227
795.608	106.928
795.737	105.959
795.865	105.660
795.993	104.979
796.121	105.825
796.249	105.887
796.377	105.041
796.505	106.258
796.633	106.072
796.762	107.124
796.890	107.608
797.018	106.124
797.146	105.835
797.274	105.423
797.402	103.990
797.530	107.134
797.658	105.639
797.787	105.897
797.915	106.351
798.043	106.351
798.171	105.258
798.299	104.639
798.427	105.505
798.555	104.144
798.683	103.969
798.812	104.794
798.940	104.701
799.068	104.381
799.196	103.845
799.324	104.227
799.452	105.031
799.580	104.567
799.708	104.742
799.837	104.062
799.965	104.629
800.093	104.763
800.221	104.732
800.349	104.443
800.477	103.309
800.605	103.763
800.733	105.010
800.862	104.711
800.990	103.990
801.118	102.753
801.246	102.711
801.374	102.897
801.502	103.320
801.630	103.557
801.758	103.443
801.887	103.258
802.015	103.649
802.143	103.649
802.271	104.598
802.399	103.113
802.527	102.515
802.655	101.928
802.783	101.814
802.912	103.742
803.040	102.918
803.168	102.856
803.296	103.825
803.424	103.000
803.552	101.742
803.680	103.000
803.808	101.969
803.937	103.175
804.065	103.515
804.193	102.990
804.321	101.598
804.449	102.979
804.577	101.031
804.705	102.588
804.833	100.897
804.962	102.753
805.090	102.660
805.218	103.856
805.346	103.433
805.474	102.412
805.602	104.000
805.730	101.567
805.858	103.639
805.987	102.093
806.115	102.639
806.243	100.907
806.371	101.732
806.499	103.278
806.627	102.392
806.755	100.680
806.883	101.990
807.012	101.979
807.140	101.443
807.268	101.536
807.396	102.959
807.524	101.103
807.652	101.866
807.780	102.021
807.908	101.804
808.037	101.784
808.165	101.856
808.293	101.371
808.421	100.196
808.549	101.278
808.677	101.237
808.805	101.784
808.933	100.763
809.062	101.196
809.190	101.196
809.318	101.845
809.446	101.753
809.574	100.454
809.702	100.866
809.830	100.897
809.958	100.649
810.087	100.711
810.215	101.732
810.343	101.866
810.471	102.835
810.599	102.691
810.727	102.753
810.855	100.701
810.983	101.814
811.112	102.103
811.240	100.268
811.368	101.103
811.496	101.670
811.624	101.526
811.752	100.928
811.880	100.351
812.008	100.206
812.137	99.794
812.265	100.526
812.393	99.649
812.521	100.330
812.649	100.629
812.777	100.062
812.905	100.113
813.033	101.381
813.162	100.103
813.290	101.773
813.418	100.959
813.546	100.794
813.674	101.134
813.802	99.052
813.930	98.763
814.058	100.649
814.187	100.876
814.315	100.062
814.443	100.381
814.571	98.598
814.699	99.918
814.827	101.536
814.955	100.577
815.083	100.680
815.212	101.351
815.340	99.969
815.468	98.680
815.596	99.887
815.724	100.598
815.852	99.670
815.980	100.165
816.108	99.330
816.237	99.454
816.365	100.691
816.493	100.021
816.621	99.464
816.749	100.753
816.877	99.577
817.005	99.392
817.133	100.753
817.262	100.845
817.390	100.433
817.518	99.845
817.646	98.412
817.774	100.660
817.902	101.021
818.030	99.546
818.158	101.330
818.287	101.526
818.415	99.433
818.543	98.866
818.671	99.845
818.799	99.392
818.927	99.103
819.055	99.773
819.183	99.567
819.312	100.320
819.440	99.577
819.568	99.278
819.696	99.670
819.824	100.103
819.952	98.443
820.080	99.371
820.208	97.825
820.337	100.082
820.465	98.897
820.593	98.763
820.721	99.691
820.849	99.186
820.977	99.206
821.105	99.206
821.233	99.629
821.362	99.897
821.490	99.814
821.618	99.216
821.746	99.258
821.874	98.474
822.002	99.031
822.130	99.948
822.258	98.794
822.387	99.103
822.515	99.247
822.643	98.268
822.771	98.206
822.899	98.897
823.027	99.639
823.155	97.845
823.283	98.402
823.412	99.887
823.540	100.639
823.668	100.062
823.796	99.515
823.924	100.371
824.052	97.701
824.180	98.897
824.308	98.907
824.437	98.660
824.565	97.227
824.693	99.237
824.821	99.237
824.949	98.557
825.077	98.608
825.205	97.021
825.333	98.144
825.462	99.062
825.590	98.072
825.718	97.340
825.846	99.031
825.974	98.526
826.102	99.144
826.230	98.577
826.358	98.670
826.487	97.845
826.615	97.763
826.743	98.742
826.871	99.134
826.999	98.794
827.127	98.907
827.255	97.835
827.383	99.103
827.512	97.845
827.640	98.814
827.768	98.825
827.896	97.897
828.024	97.361
828.152	98.433
828.280	101.505
828.408	99.948
828.537	98.598
828.665	98.216
828.793	99.124
828.921	98.990
829.049	98.247
829.177	97.701
829.305	98.856
829.433	98.309
829.562	97.928
829.690	98.381
829.818	97.392
829.946	97.959
830.074	98.680
830.202	100.155
830.330	97.351
830.458	98.732
830.587	98.495
830.715	97.423
830.843	98.299
830.971	98.979
831.099	97.835
831.227	97.814
831.355	97.763
831.483	99.113
831.612	98.392
831.740	99.247
831.868	98.454
831.996	98.175
832.124	98.948
832.252	97.907
832.380	98.536
832.508	99.196
832.637	98.670
832.765	97.515
832.893	98.969
833.021	98.103
833.149	97.546
833.277	99.144
833.405	98.577
833.533	98.031
833.662	98.155
833.790	97.505
833.918	98.897
834.046	98.918
834.174	99.928
834.302	99.680
834.430	97.309
834.558	98.567
834.687	98.722
834.815	97.753
834.943	97.660
835.071	97.392
835.199	97.619
835.327	98.825
835.455	97.340
835.583	98.619
835.712	97.990
835.840	98.124
835.968	97.392
836.096	97.938
836.224	98.052
836.352	98.619
836.480	98.278
836.608	98.052
836.737	99.577
836.865	98.381
836.993	97.608
837.121	98.711
837.249	98.186
837.377	98.938
837.505	96.402
837.633	99.052
837.762	96.948
837.890	97.309
838.018	96.835
838.146	98.773
838.274	97.814
838.402	98.237
838.530	97.588
838.658	97.485
838.787	97.134
838.915	97.515
839.043	98.598
839.171	98.351
839.299	98.258
839.427	97.237
839.555	98.557
839.683	99.278
839.812	98.165
839.940	98.062
840.068	98.536
840.196	98.876
840.324	97.979
840.452	97.794
840.580	97.763
840.708	98.722
840.837	97.979
840.965	98.979
841.093	98.876
841.221	99.124
841.349	99.082
841.477	98.701
841.605	96.887
841.733	96.701
841.862	99.918
841.990	98.062
842.118	98.103
842.246	96.794
842.374	96.876
842.502	98.474
842.630	98.546
842.758	98.103
842.887	97.320
843.015	98.454
843.143	97.639
843.271	97.660
843.399	98.320
843.527	97.381
843.655	97.856
843.783	98.134
843.912	98.186
844.040	98.680
844.168	98.567
844.296	99.309
844.424	98.753
844.552	98.309
844.680	97.165
844.808	99.371
844.937	98.021
845.065	96.918
845.193	99.093
845.321	98.155
845.449	98.742
845.577	98.402
845.705	97.330
845.833	99.979
845.962	97.619
846.090	97.577
846.218	96.258
846.346	97.577
846.474	96.649
846.602	97.443
846.730	98.784
846.858	98.000
846.987	98.144
847.115	98.660
847.243	98.567
847.371	97.938
847.499	96.639
847.627	98.289
847.755	96.711
847.883	97.144
848.012	98.021
848.140	98.186
848.268	98.144
848.396	98.082
848.524	98.948
848.652	100.165
848.780	98.031
848.908	99.588
849.037	97.938
849.165	98.000
849.293	97.845
849.421	98.691
849.549	97.639
849.677	96.134
849.805	98.660
849.933	97.464
850.062	98.433
850.190	97.845
850.318	98.392
850.446	98.186
850.574	97.454
850.702	98.804
850.830	97.969
850.958	97.546
851.087	98.938
851.215	98.320
851.343	98.825
851.471	97.464
851.599	98.897
851.727	97.691
851.855	97.351
851.983	96.887
852.112	98.299
852.240	97.938
852.368	98.124
852.496	98.351
852.624	97.082
852.752	96.526
852.880	97.732
853.008	96.845
853.137	98.433
853.265	99.124
853.393	98.711
853.521	98.010
853.649	98.165
853.777	97.619
853.905	96.856
854.033	96.763
854.162	98.021
854.290	97.165
854.418	97.536
854.546	95.753
854.674	97.742
854.802	95.990
854.930	96.299
855.058	98.340
855.187	97.412
855.315	97.598
855.443	98.598
855.571	98.979
855.699	97.887
855.827	97.948
855.955	98.515
856.083	97.959
856.212	97.804
856.340	99.072
856.468	97.433
856.596	97.784
856.724	97.979
856.852	99.062
856.980	97.247
857.108	97.371
857.237	97.515
857.365	97.113
857.493	98.052
857.621	96.773
857.749	96.928
857.877	97.660
858.005	98.845
858.133	95.794
858.262	96.856
858.390	98.711
858.518	96.485
858.646	97.577
858.774	99.237
858.902	97.928
859.030	97.928
859.158	97.608
859.287	97.464
859.415	96.732
859.543	97.371
859.671	97.052
859.799	97.351
859.927	97.546
860.055	98.825
860.183	97.485
860.312	97.309
860.440	97.856
860.568	98.464
860.696	97.804
860.824	98.402
860.952	97.546
861.080	98.536
861.208	98.186
861.337	98.062
861.465	97.381
861.593	96.680
861.721	97.443
861.849	96.052
861.977	97.082
862.105	98.113
862.233	98.423
862.362	98.340
862.490	97.196
862.618	98.247
862.746	98.010
862.874	98.619
863.002	97.619
863.130	97.144
863.258	98.835
863.387	97.835
863.515	98.763
863.643	97.320
863.771	98.412
863.899	98.577
864.027	100.351
864.155	97.588
864.283	96.732
864.412	99.216
864.540	97.825
864.668	97.619
864.796	99.340
864.924	98.526
865.052	97.557
865.180	97.742
865.308	98.443
865.437	97.567
865.565	97.526
865.693	98.866
865.821	98.113
865.949	97.103
866.077	98.134
866.205	96.711
866.333	98.258
866.462	97.103
866.590	98.186
866.718	97.804
866.846	98.835
866.974	98.299
867.102	97.052
867.230	97.959
867.358	98.567
867.487	97.835
867.615	97.928
867.743	98.897
867.871	98.835
867.999	98.928
868.127	98.567
868.255	99.371
868.383	98.557
868.512	97.794
868.640	98.567
868.768	99.423
868.896	97.835
869.024	98.536
869.152	98.526
869.280	99.237
869.408	99.216
869.537	97.814
869.665	97.485
869.793	97.928
869.921	98.835
870.049	99.062
870.177	99.784
870.305	99.247
870.433	99.124
870.562	98.887
870.690	97.804
870.818	98.536
870.946	98.144
871.074	99.433
871.202	97.567
871.330	97.526
871.458	99.423
871.587	99.021
871.715	96.897
871.843	98.443
871.971	98.495
872.099	97.165
872.227	98.742
872.355	98.392
872.483	98.010
872.612	99.608
872.740	98.361
872.868	98.526
872.996	96.515
873.124	98.351
873.252	99.691
873.380	98.464
873.508	98.526
873.637	98.412
873.765	96.866
873.893	97.505
874.021	100.206
874.149	99.495
874.277	99.165
874.405	98.804
874.533	99.557
874.662	98.351
874.790	97.804
874.918	98.526
875.046	96.443
875.174	97.670
875.302	99.082
875.430	98.124
875.558	96.412
875.687	98.979
875.815	99.701
875.943	98.351
876.071	99.660
876.199	99.412
876.327	97.938
876.455	99.186
876.583	99.381
876.712	98.495
876.840	97.227
876.968	98.784
877.096	98.474
877.224	99.082
877.352	97.907
877.480	98.887
877.608	98.742
877.737	98.371
877.865	97.041
877.993	97.196
878.121	99.247
878.249	100.268
878.377	98.825
878.505	97.969
878.633	98.361
878.762	99.289
878.890	97.794
879.018	98.103
879.146	99.990
879.274	98.773
879.402	99.423
879.530	97.897
879.658	98.691
879.787	96.536
879.915	98.155
880.043	98.134
880.171	98.124
880.299	98.619
880.427	98.144
880.555	98.701
880.683	97.948
880.812	99.289
880.940	98.773
881.068	98.258
881.196	99.093
881.324	99.010
881.452	98.124
881.580	98.010
881.708	97.814
881.837	98.876
881.965	97.649
882.093	98.412
882.221	97.474
882.349	97.680
882.477	99.031
882.605	99.010
882.733	98.495
882.862	98.454
882.990	98.186
883.118	98.918
883.246	98.103
883.374	99.031
883.502	98.206
883.630	99.320
883.758	99.567
883.887	98.608
884.015	98.722
884.143	99.021
884.271	98.763
884.399	98.340
884.527	98.392
884.655	98.361
884.783	100.155
884.912	100.196
885.040	98.165
885.168	98.247
885.296	98.412
885.424	98.258
885.552	98.082
885.680	97.608
885.808	99.495
885.937	100.392
886.065	97.608
886.193	97.196
886.321	99.804
886.449	99.907
886.577	98.103
886.705	98.371
886.833	98.887
886.962	98.918
887.090	98.794
887.218	97.897
887.346	98.474
887.474	100.381
887.602	98.010
887.730	96.907
887.858	98.412
887.987	98.742
888.115	98.278
888.243	100.113
888.371	99.443
888.499	99.495
888.627	98.485
888.755	98.948
888.883	99.052
889.012	97.948
889.140	97.722
889.268	97.763
889.396	98.701
889.524	98.629
889.652	97.969
889.780	98.670
889.908	98.557
890.037	98.938
890.165	97.608
890.293	98.639
890.421	98.402
890.549	99.433
890.677	97.814
890.805	98.546
890.933	98.794
891.062	98.485
891.190	99.052
891.318	99.546
891.446	99.268
891.574	98.557
891.702	97.330
891.830	98.495
891.958	98.557
892.087	99.237
892.215	98.526
892.343	100.371
892.471	98.247
892.599	98.330
892.727	98.887
892.855	99.577
892.983	99.959
893.112	99.072
893.240	99.062
893.368	99.979
893.496	100.258
893.624	99.258
893.752	99.567
893.880	97.134
894.008	99.072
894.137	98.928
894.265	99.392
894.393	99.464
894.521	99.577
894.649	99.371
894.777	98.742
894.905	98.557
895.033	100.990
895.162	99.753
895.290	98.546
895.418	99.773
895.546	99.649
895.674	98.237
895.802	98.021
895.930	99.103
896.058	98.495
896.187	99.753
896.315	100.588
896.443	98.794
896.571	99.990
896.699	100.186
896.827	98.897
896.955	100.433
897.083	99.784
897.212	100.103
897.340	98.835
897.468	97.660
897.596	98.237
897.724	98.515
897.852	99.392
897.980	99.753
898.108	99.485
898.237	98.124
898.365	99.505
898.493	100.825
898.621	100.165
898.749	99.433
898.877	100.041
899.005	99.082
899.133	99.505
899.262	100.227
899.390	98.598
899.518	99.464
899.646	100.052
899.774	99.825
899.902	99.794
900.030	99.784
900.158	99.969
900.287	100.856
900.415	100.031
900.543	99.711
900.671	101.010
900.799	98.237
900.927	99.000
901.055	98.938
901.183	98.402
901.312	99.711
901.440	100.155
901.568	100.258
901.696	99.835
901.824	98.990
901.952	100.247
902.080	99.175
902.208	99.701
902.337	100.268
902.465	100.155
902.593	100.691
902.721	100.763
902.849	101.031
902.977	100.103
903.105	99.474
903.233	100.278
903.362	100.577
903.490	99.175
903.618	99.031
903.746	99.155
903.874	100.701
904.002	101.175
904.130	100.691
904.258	98.402
904.387	99.794
904.515	99.361
904.643	101.361
904.771	101.072
904.899	100.165
905.027	99.691
905.155	98.763
905.283	100.031
905.412	100.052
905.540	99.711
905.668	99.237
905.796	98.495
905.924	100.196
906.052	100.031
906.180	100.289
906.308	99.361
906.437	98.742
906.565	100.000
906.693	99.165
906.821	97.742
906.949	99.691
907.077	100.474
907.205	100.959
907.333	99.670
907.462	99.948
907.590	100.515
907.718	99.124
907.846	99.691
907.974	101.340
908.102	100.897
908.230	99.237
908.358	98.629
908.487	98.412
908.615	98.825
908.743	99.784
908.871	100.732
908.999	99.309
909.127	98.794
909.255	98.454
909.383	98.680
909.512	100.330
909.640	100.186
909.768	100.907
909.896	100.804
910.024	100.165
910.152	100.227
910.280	100.330
910.408	100.206
910.537	100.649
910.665	100.711
910.793	100.794
910.921	100.876
911.049	100.186
911.177	99.876
911.305	100.113
911.433	100.866
911.562	100.546
911.690	100.412
911.818	99.423
911.946	101.505
912.074	100.784
912.202	99.979
912.330	99.701
912.458	101.072
912.587	99.660
912.715	99.969
912.843	100.392
912.971	100.536
913.099	100.124
913.227	101.423
913.355	101.113
913.483	100.845
913.612	101.526
913.740	101.103
913.868	99.351
