90_130_wo_Pol_at_750.00nm_cut_at_1179.00Y_01.dat
03.07.2023
11:33:08
cut middle at Y: 1179.00
top cursor: 1231 down cursor: 1127 mean of: 104 lines , 2560 datapoints
wavelength(nm)	intensity[arb. units]
585.996	25640.731
586.124	25221.683
586.252	25237.615
586.380	25258.962
586.508	25373.221
586.637	25484.885
586.765	25481.269
586.893	25542.337
587.021	25550.558
587.149	25692.971
587.277	25747.654
587.405	25759.192
587.533	25898.192
587.662	25907.288
587.790	25838.577
587.918	25868.154
588.046	25854.106
588.174	25970.654
588.302	25956.106
588.430	26032.298
588.558	26006.788
588.687	25996.654
588.815	26072.000
588.943	26014.096
589.071	26006.817
589.199	26091.029
589.327	26026.288
589.455	26067.163
589.583	26036.394
589.712	26050.317
589.840	26015.644
589.968	26007.346
590.096	26100.212
590.224	26109.173
590.352	26170.106
590.480	26134.981
590.608	25997.279
590.737	26055.317
590.865	26071.375
590.993	26022.923
591.121	26024.510
591.249	26044.817
591.377	26052.481
591.505	26126.548
591.633	26081.760
591.762	26100.490
591.890	26117.423
592.018	26208.567
592.146	26180.346
592.274	26192.452
592.402	26172.673
592.530	26392.125
592.658	26330.981
592.787	26350.087
592.915	26374.933
593.043	26298.798
593.171	26416.827
593.299	26388.423
593.427	26398.538
593.555	26473.865
593.683	26515.404
593.812	26504.885
593.940	26583.615
594.068	26659.779
594.196	26654.183
594.324	26752.510
594.452	26948.394
594.580	26857.365
594.708	26947.038
594.837	26996.144
594.965	27058.750
595.093	27107.721
595.221	27274.365
595.349	27279.971
595.477	27297.846
595.605	27376.519
595.733	27436.510
595.862	27418.433
595.990	27427.250
596.118	27481.058
596.246	27600.433
596.374	27624.462
596.502	27660.885
596.630	27671.913
596.758	27683.596
596.887	27762.894
597.015	27840.577
597.143	27825.490
597.271	27829.067
597.399	27934.212
597.527	27876.952
597.655	27926.029
597.783	27980.769
597.912	27969.471
598.040	28046.404
598.168	27970.933
598.296	27912.923
598.424	28069.038
598.552	27915.740
598.680	27939.808
598.808	28050.577
598.937	27983.221
599.065	27987.192
599.193	28025.337
599.321	27991.740
599.449	27931.654
599.577	27934.529
599.705	27895.346
599.833	27858.327
599.962	27838.260
600.090	27866.731
600.218	27790.413
600.346	27877.154
600.474	27875.260
600.602	27824.510
600.730	27854.202
600.858	27911.865
600.987	28050.952
601.115	27858.394
601.243	27994.788
601.371	28064.144
601.499	28040.702
601.627	28071.731
601.755	28054.058
601.883	28139.202
602.012	28065.875
602.140	28113.827
602.268	28146.490
602.396	28311.154
602.524	28319.798
602.652	28448.654
602.780	28421.885
602.908	28507.933
603.037	28639.231
603.165	28691.644
603.293	28741.529
603.421	28819.240
603.549	28882.500
603.677	28987.779
603.805	29090.567
603.933	29108.635
604.062	29317.019
604.190	29376.875
604.318	29382.885
604.446	29423.490
604.574	29561.375
604.702	29642.490
604.830	29729.096
604.958	29744.971
605.087	29916.702
605.215	30072.279
605.343	30154.481
605.471	30219.413
605.599	30274.740
605.727	30399.163
605.855	30426.894
605.983	30500.606
606.112	30587.154
606.240	30643.827
606.368	30633.817
606.496	30676.269
606.624	30805.048
606.752	30810.587
606.880	30849.990
607.008	30913.712
607.137	30957.587
607.265	31026.702
607.393	31042.212
607.521	31106.365
607.649	30999.452
607.777	31036.317
607.905	31063.750
608.033	31058.817
608.162	31029.538
608.290	31028.000
608.418	31172.202
608.546	31132.923
608.674	31192.183
608.802	31065.144
608.930	31101.606
609.058	31113.192
609.187	31103.856
609.315	31045.885
609.443	30972.452
609.571	31110.010
609.699	30975.827
609.827	31007.519
609.955	30961.702
610.083	30972.913
610.212	30938.260
610.340	30884.942
610.468	30902.942
610.596	30871.346
610.724	30839.981
610.852	30897.346
610.980	30892.452
611.108	30881.856
611.237	30866.760
611.365	30890.904
611.493	30869.596
611.621	30849.481
611.749	30883.212
611.877	30929.817
612.005	30942.260
612.133	30949.144
612.262	31026.221
612.390	31087.067
612.518	31117.288
612.646	31111.010
612.774	31253.413
612.902	31202.760
613.030	31238.173
613.158	31207.010
613.287	31333.452
613.415	31306.577
613.543	31321.923
613.671	31376.817
613.799	31425.654
613.927	31479.962
614.055	31639.885
614.183	31615.413
614.312	31684.433
614.440	31822.433
614.568	31843.298
614.696	31929.577
614.824	31995.798
614.952	32025.231
615.080	32075.087
615.208	32206.846
615.337	32303.894
615.465	32276.269
615.593	32385.481
615.721	32375.731
615.849	32520.981
615.977	32521.269
616.105	32605.788
616.233	32658.933
616.362	32767.077
616.490	32775.058
616.618	32925.106
616.746	33025.654
616.874	33104.510
617.002	33208.510
617.130	33165.260
617.258	33180.625
617.387	33228.260
617.515	33254.538
617.643	33236.337
617.771	33352.269
617.899	33358.750
618.027	33421.462
618.155	33412.038
618.283	33446.212
618.412	33571.769
618.540	33582.183
618.668	33567.750
618.796	33596.442
618.924	33576.587
619.052	33641.788
619.180	33595.452
619.308	33523.404
619.437	33552.885
619.565	33636.942
619.693	33593.192
619.821	33624.990
619.949	33619.942
620.077	33586.904
620.205	33687.548
620.333	33636.087
620.462	33647.365
620.590	33662.942
620.718	33724.779
620.846	33691.346
620.974	33680.067
621.102	33774.567
621.230	33686.923
621.358	33807.490
621.487	33709.721
621.615	33656.413
621.743	33584.423
621.871	33652.673
621.999	33599.673
622.127	33642.933
622.255	33623.760
622.383	33565.308
622.512	33560.096
622.640	33503.269
622.768	33564.087
622.896	33667.260
623.024	33562.894
623.152	33558.913
623.280	33586.587
623.408	33597.308
623.537	33641.365
623.665	33538.298
623.793	33635.683
623.921	33599.913
624.049	33574.221
624.177	33582.385
624.305	33481.356
624.433	33540.298
624.562	33592.577
624.690	33603.990
624.818	33427.500
624.946	33393.221
625.074	33477.663
625.202	33390.029
625.330	33470.308
625.458	33551.423
625.587	33411.740
625.715	33514.654
625.843	33452.298
625.971	33548.837
626.099	33464.548
626.227	33502.038
626.355	33467.952
626.483	33550.048
626.612	33518.462
626.740	33619.865
626.868	33581.875
626.996	33661.413
627.124	33613.096
627.252	33637.096
627.380	33612.606
627.508	33581.846
627.637	33645.173
627.765	33742.548
627.893	33707.885
628.021	33829.096
628.149	33732.192
628.277	33798.221
628.405	33758.990
628.533	33831.587
628.662	33763.433
628.790	33934.673
628.918	33944.933
629.046	34066.942
629.174	33943.808
629.302	34038.808
629.430	34036.135
629.558	34026.769
629.687	34040.740
629.815	34174.173
629.943	34266.356
630.071	34254.202
630.199	34342.096
630.327	34355.394
630.455	34405.019
630.583	34347.471
630.712	34439.558
630.840	34507.173
630.968	34438.913
631.096	34587.587
631.224	34577.769
631.352	34731.654
631.480	34682.692
631.608	34890.087
631.737	34667.702
631.865	34831.010
631.993	34858.433
632.121	35005.048
632.249	34911.452
632.377	34843.423
632.505	34908.712
632.633	35038.808
632.762	34849.558
632.890	34964.567
633.018	34885.192
633.146	34864.510
633.274	34916.452
633.402	34934.163
633.530	34824.298
633.658	34871.663
633.787	34869.317
633.915	34901.500
634.043	34968.404
634.171	34932.452
634.299	34846.087
634.427	34840.644
634.555	35070.567
634.683	34840.846
634.812	34802.904
634.940	34708.952
635.068	34722.327
635.196	34665.356
635.324	34620.067
635.452	34610.000
635.580	34712.038
635.708	34517.750
635.837	34519.000
635.965	34506.327
636.093	34382.471
636.221	34315.500
636.349	34203.385
636.477	34186.808
636.605	34238.635
636.733	34180.529
636.862	34076.942
636.990	34006.327
637.118	33961.904
637.246	33905.740
637.374	33990.750
637.502	33777.952
637.630	33726.538
637.758	33716.625
637.887	33617.087
638.015	33679.394
638.143	33543.962
638.271	33441.567
638.399	33462.769
638.527	33328.048
638.655	33409.596
638.783	33273.144
638.912	33249.115
639.040	33161.702
639.168	33093.885
639.296	33061.837
639.424	33050.462
639.552	33000.721
639.680	32963.433
639.808	32906.202
639.937	32898.163
640.065	32919.317
640.193	32927.567
640.321	32967.673
640.449	32943.298
640.577	32841.885
640.705	32849.317
640.833	32789.683
640.962	32901.615
641.090	32792.490
641.218	32774.183
641.346	32806.567
641.474	32768.942
641.602	32771.702
641.730	32678.346
641.858	32666.423
641.987	32705.596
642.115	32878.894
642.243	32711.231
642.371	32860.865
642.499	32656.173
642.627	32755.990
642.755	32715.788
642.883	32695.721
643.012	32656.231
643.140	32752.683
643.268	32710.548
643.396	32662.625
643.524	32692.500
643.652	32786.365
643.780	32680.875
643.908	32681.510
644.037	32796.423
644.165	32773.654
644.293	32847.942
644.421	32630.067
644.549	32707.212
644.677	32747.019
644.805	32613.481
644.933	32624.808
645.062	32745.240
645.190	32748.606
645.318	32739.212
645.446	32672.404
645.574	32667.221
645.702	32606.846
645.830	32552.500
645.958	32580.644
646.087	32541.048
646.215	32526.481
646.343	32540.760
646.471	32687.760
646.599	32458.356
646.727	32488.423
646.855	32438.808
646.983	32442.712
647.112	32487.125
647.240	32376.346
647.368	32437.135
647.496	32360.510
647.624	32308.365
647.752	32264.471
647.880	32268.913
648.008	32283.288
648.137	32278.798
648.265	32239.346
648.393	32259.481
648.521	32083.481
648.649	32200.529
648.777	32087.192
648.905	32002.760
649.033	32066.433
649.162	31874.096
649.290	31733.375
649.418	31795.423
649.546	31938.202
649.674	31776.288
649.802	31712.798
649.930	31560.548
650.058	31574.865
650.187	31549.990
650.315	31491.865
650.443	31419.077
650.571	31282.663
650.699	31227.635
650.827	31228.442
650.955	31118.183
651.083	31113.260
651.212	31053.731
651.340	31011.260
651.468	30984.798
651.596	30909.510
651.724	30787.163
651.852	30746.654
651.980	30740.423
652.108	30642.913
652.237	30645.154
652.365	30571.567
652.493	30514.885
652.621	30460.760
652.749	30439.865
652.877	30387.067
653.005	30374.981
653.133	30304.481
653.262	30162.837
653.390	30163.125
653.518	30229.962
653.646	30040.433
653.774	29977.394
653.902	30009.712
654.030	30016.250
654.158	29852.606
654.287	29907.856
654.415	29810.212
654.543	29817.471
654.671	29761.365
654.799	29712.192
654.927	29634.606
655.055	29581.010
655.183	29555.096
655.312	29503.933
655.440	29412.913
655.568	29427.875
655.696	29366.135
655.824	29313.231
655.952	29276.144
656.080	29173.731
656.208	29154.750
656.337	29160.894
656.465	29341.971
656.593	29056.269
656.721	29046.173
656.849	29070.904
656.977	28813.587
657.105	28807.721
657.233	28887.394
657.362	28881.683
657.490	28788.394
657.618	28778.192
657.746	28701.481
657.874	28458.625
658.002	28460.798
658.130	28316.721
658.258	28244.538
658.387	28261.279
658.515	28190.577
658.643	28101.827
658.771	28121.971
658.899	28046.308
659.027	28050.702
659.155	28015.663
659.283	27919.683
659.412	27811.394
659.540	27807.163
659.668	27864.788
659.796	27856.817
659.924	27837.404
660.052	27941.154
660.180	27835.154
660.308	27819.337
660.437	27775.721
660.565	27627.192
660.693	27485.077
660.821	27591.231
660.949	27395.240
661.077	27432.087
661.205	27529.885
661.333	27320.471
661.462	27267.577
661.590	27296.240
661.718	27155.538
661.846	27173.106
661.974	27090.462
662.102	27089.163
662.230	26993.519
662.358	26889.721
662.487	26886.500
662.615	26900.856
662.743	26816.500
662.871	26820.058
662.999	26708.260
663.127	26689.183
663.255	26605.827
663.383	26678.154
663.512	26473.904
663.640	26511.846
663.768	26497.183
663.896	26412.587
664.024	26434.817
664.152	26345.337
664.280	26368.288
664.408	26257.558
664.537	26241.423
664.665	26278.952
664.793	26208.365
664.921	26136.971
665.049	26142.538
665.177	26049.413
665.305	26115.538
665.433	26007.096
665.562	26167.644
665.690	25972.500
665.818	26066.490
665.946	25848.750
666.074	25861.894
666.202	25822.375
666.330	25718.663
666.458	25960.000
666.587	25691.769
666.715	25682.885
666.843	25641.413
666.971	25578.846
667.099	25569.519
667.227	25612.673
667.355	25581.769
667.483	25451.173
667.612	25476.731
667.740	25450.625
667.868	25344.135
667.996	25331.260
668.124	25333.962
668.252	25383.462
668.380	25207.904
668.508	25232.029
668.637	25115.433
668.765	25099.913
668.893	25006.654
669.021	24977.663
669.149	25043.933
669.277	24894.721
669.405	24991.654
669.533	24935.337
669.662	24782.654
669.790	24775.750
669.918	24760.971
670.046	24844.587
670.174	24634.827
670.302	24525.115
670.430	24419.231
670.558	24527.644
670.687	24614.596
670.815	24338.808
670.943	24368.212
671.071	24228.606
671.199	24152.038
671.327	24135.115
671.455	24161.654
671.583	24074.971
671.712	24008.740
671.840	24039.558
671.968	24078.798
672.096	24013.077
672.224	23797.115
672.352	23783.837
672.480	23667.942
672.608	23664.144
672.737	23546.144
672.865	23542.577
672.993	23456.827
673.121	23381.990
673.249	23355.567
673.377	23279.385
673.505	23261.375
673.633	23274.221
673.762	23163.644
673.890	23094.413
674.018	23073.423
674.146	22959.269
674.274	22943.875
674.402	22890.154
674.530	22836.817
674.658	22741.077
674.787	22707.115
674.915	22791.269
675.043	22608.500
675.171	22510.279
675.299	22451.740
675.427	22359.596
675.555	22312.481
675.683	22298.298
675.812	22167.615
675.940	22143.183
676.068	22018.577
676.196	22103.913
676.324	21969.183
676.452	21917.519
676.580	21808.115
676.708	21797.779
676.837	21675.385
676.965	21761.510
677.093	21738.923
677.221	21558.240
677.349	21463.923
677.477	21477.288
677.605	21333.635
677.733	21292.904
677.862	21249.654
677.990	21235.663
678.118	21189.260
678.246	21117.808
678.374	21086.865
678.502	20943.154
678.630	20868.125
678.758	20908.846
678.887	20943.404
679.015	20688.212
679.143	20643.538
679.271	20605.288
679.399	20593.058
679.527	20535.769
679.655	20521.558
679.783	20481.327
679.912	20367.942
680.040	20480.087
680.168	20287.308
680.296	20251.837
680.424	20206.827
680.552	20136.183
680.680	20022.000
680.808	20013.038
680.937	19933.712
681.065	19957.462
681.193	19885.788
681.321	19785.462
681.449	19875.202
681.577	19754.788
681.705	19713.019
681.833	19699.894
681.962	19605.442
682.090	19556.269
682.218	19514.115
682.346	19466.769
682.474	19425.827
682.602	19380.663
682.730	19438.058
682.858	19294.971
682.987	19310.856
683.115	19245.558
683.243	19196.163
683.371	19190.192
683.499	19139.731
683.627	19119.933
683.755	19091.038
683.883	18998.490
684.012	19029.163
684.140	18966.385
684.268	18953.558
684.396	18939.077
684.524	18871.990
684.652	18846.327
684.780	18840.010
684.908	18792.577
685.037	18765.365
685.165	18720.202
685.293	18757.058
685.421	18646.500
685.549	18635.404
685.677	18554.471
685.805	18545.413
685.933	18427.115
686.062	18425.663
686.190	18370.481
686.318	18328.433
686.446	18302.010
686.574	18256.673
686.702	18262.115
686.830	18165.317
686.958	18194.519
687.087	18062.260
687.215	18050.510
687.343	18023.067
687.471	18138.115
687.599	17913.240
687.727	17898.490
687.855	17827.788
687.983	17787.962
688.112	17848.971
688.240	17760.721
688.368	17751.067
688.496	17654.577
688.624	17582.385
688.752	17680.135
688.880	17550.231
689.008	17478.154
689.137	17426.490
689.265	17398.163
689.393	17346.346
689.521	17302.202
689.649	17395.971
689.777	17246.010
689.905	17267.442
690.033	17105.346
690.162	17073.298
690.290	17094.221
690.418	16984.635
690.546	17018.567
690.674	16968.865
690.802	16941.740
690.930	16882.615
691.058	16840.875
691.187	16734.990
691.315	16731.048
691.443	16674.038
691.571	16663.423
691.699	16526.750
691.827	16514.433
691.955	16483.567
692.083	16440.548
692.212	16424.029
692.340	16351.779
692.468	16381.923
692.596	16339.615
692.724	16191.048
692.852	16257.731
692.980	16195.183
693.108	16190.279
693.237	16053.096
693.365	15970.712
693.493	15959.981
693.621	15923.702
693.749	15838.510
693.877	15822.644
694.005	15711.529
694.133	15656.048
694.262	15671.692
694.390	15569.625
694.518	15571.567
694.646	15521.837
694.774	15434.798
694.902	15383.346
695.030	15373.692
695.158	15287.971
695.287	15232.221
695.415	15218.288
695.543	15119.760
695.671	15082.740
695.799	15174.423
695.927	15045.798
696.055	15008.404
696.183	14899.221
696.312	15046.596
696.440	14893.769
696.568	14847.827
696.696	14657.721
696.824	14637.827
696.952	14588.817
697.080	14599.683
697.208	14471.192
697.337	14473.404
697.465	14427.538
697.593	14322.260
697.721	14417.125
697.849	14232.981
697.977	14271.913
698.105	14257.288
698.233	14140.798
698.362	14092.019
698.490	14204.606
698.618	13999.933
698.746	13961.221
698.874	13977.731
699.002	13924.577
699.130	13886.548
699.258	13791.327
699.387	13732.587
699.515	13721.519
699.643	13709.308
699.771	13714.452
699.899	13582.250
700.027	13494.875
700.155	13550.981
700.283	13404.875
700.412	13394.490
700.540	13386.067
700.668	13391.452
700.796	13249.442
700.924	13268.663
701.052	13228.817
701.180	13191.481
701.308	13093.875
701.437	13025.702
701.565	13003.683
701.693	13006.731
701.821	13121.827
701.949	12857.452
702.077	12839.288
702.205	12869.558
702.333	12769.788
702.462	12695.231
702.590	12721.308
702.718	12566.481
702.846	12739.760
702.974	12535.058
703.102	12481.750
703.230	12487.423
703.358	12418.019
703.487	12336.740
703.615	12299.788
703.743	12273.538
703.871	12222.029
703.999	12199.923
704.127	12100.423
704.255	12062.260
704.383	12021.913
704.512	12090.837
704.640	11994.692
704.768	11980.433
704.896	11857.548
705.024	11786.212
705.152	11748.962
705.280	11774.423
705.408	11663.548
705.537	11604.471
705.665	11592.308
705.793	11532.837
705.921	11480.904
706.049	11388.529
706.177	11458.250
706.305	11347.587
706.433	11367.327
706.562	11288.154
706.690	11266.010
706.818	11201.231
706.946	11089.077
707.074	11050.788
707.202	11011.548
707.330	11001.654
707.458	10932.750
707.587	10846.577
707.715	10912.731
707.843	10907.269
707.971	10854.000
708.099	10733.375
708.227	10713.548
708.355	10656.106
708.483	10628.317
708.612	10607.202
708.740	10509.875
708.868	10480.663
708.996	10535.750
709.124	10464.683
709.252	10411.683
709.380	10393.510
709.508	10306.567
709.637	10349.106
709.765	10295.846
709.893	10298.106
710.021	10188.567
710.149	10265.135
710.277	10094.010
710.405	10075.721
710.533	10046.500
710.662	9990.817
710.790	10099.596
710.918	9911.269
711.046	9925.221
711.174	9882.288
711.302	9899.202
711.430	9816.760
711.558	9807.087
711.687	9775.769
711.815	9677.404
711.943	9646.279
712.071	9603.981
712.199	9647.625
712.327	9668.077
712.455	9546.346
712.583	9675.317
712.712	9489.250
712.840	9507.529
712.968	9402.346
713.096	9379.308
713.224	9350.587
713.352	9326.404
713.480	9239.519
713.608	9238.462
713.737	9187.990
713.865	9224.365
713.993	9164.606
714.121	9137.154
714.249	9043.654
714.377	9055.010
714.505	9022.500
714.633	9004.183
714.762	8930.365
714.890	8910.606
715.018	8911.096
715.146	8894.452
715.274	8825.490
715.402	8817.760
715.530	8770.587
715.658	8816.692
715.787	8757.221
715.915	8785.558
716.043	8685.971
716.171	8778.817
716.299	8599.279
716.427	8656.010
716.555	8546.346
716.683	8523.817
716.812	8497.404
716.940	8455.221
717.068	8421.856
717.196	8565.471
717.324	8411.644
717.452	8352.019
717.580	8391.308
717.708	8256.221
717.837	8269.413
717.965	8301.394
718.093	8180.308
718.221	8207.183
718.349	8226.577
718.477	8139.202
718.605	8185.837
718.733	8107.846
718.862	8105.904
718.990	7990.106
719.118	8052.279
719.246	7967.298
719.374	7914.971
719.502	7933.048
719.630	8023.423
719.758	7837.125
719.887	7797.250
720.015	7810.529
720.143	7800.269
720.271	7716.471
720.399	7742.096
720.527	7696.221
720.655	7760.038
720.783	7631.625
720.912	7566.538
721.040	7572.663
721.168	7572.375
721.296	7496.519
721.424	7463.413
721.552	7433.625
721.680	7469.356
721.808	7403.481
721.937	7362.452
722.065	7403.856
722.193	7321.202
722.321	7302.500
722.449	7280.346
722.577	7191.173
722.705	7189.337
722.833	7193.606
722.962	7162.827
723.090	7102.250
723.218	7081.385
723.346	7099.721
723.474	7020.885
723.602	6976.490
723.730	6950.721
723.858	6942.500
723.987	6924.173
724.115	6906.067
724.243	6884.990
724.371	6836.577
724.499	6790.500
724.627	6783.356
724.755	6764.750
724.883	6795.106
725.012	6868.183
725.140	6717.423
725.268	6606.365
725.396	6671.231
725.524	6695.375
725.652	6556.548
725.780	6655.865
725.908	6522.038
726.037	6498.010
726.165	6486.221
726.293	6407.519
726.421	6417.288
726.549	6426.615
726.677	6397.933
726.805	6288.212
726.933	6299.529
727.062	6294.606
727.190	6225.548
727.318	6175.673
727.446	6170.625
727.574	6177.404
727.702	6132.385
727.830	6185.000
727.958	6095.192
728.087	6168.202
728.215	6187.317
728.343	6025.644
728.471	6041.933
728.599	6140.779
728.727	5967.462
728.855	5934.635
728.983	5884.260
729.112	5909.721
729.240	5886.654
729.368	5854.038
729.496	5848.885
729.624	5842.865
729.752	5771.106
729.880	5736.731
730.008	5734.971
730.137	5744.933
730.265	5713.490
730.393	5866.788
730.521	5791.067
730.649	5608.952
730.777	5551.048
730.905	5564.183
731.033	5513.038
731.162	5638.394
731.290	5580.933
731.418	5507.058
731.546	5477.144
731.674	5483.298
731.802	5406.558
731.930	5500.163
732.058	5529.106
732.187	5386.702
732.315	5404.183
732.443	5479.404
732.571	5391.183
732.699	5366.529
732.827	5350.346
732.955	5257.125
733.083	5273.760
733.212	5284.750
733.340	5216.644
733.468	5202.115
733.596	5184.673
733.724	5174.875
733.852	5174.250
733.980	5142.587
734.108	5286.529
734.237	5133.827
734.365	5081.885
734.493	5075.962
734.621	5037.788
734.749	5031.577
734.877	5028.490
735.005	5015.856
735.133	4974.769
735.262	5064.827
735.390	4961.144
735.518	4952.413
735.646	5017.038
735.774	4991.606
735.902	4971.865
736.030	4865.625
736.158	4863.875
736.287	4896.837
736.415	4825.192
736.543	4812.173
736.671	4765.404
736.799	4814.173
736.927	4796.731
737.055	4870.865
737.183	4720.058
737.312	4698.212
737.440	4708.673
737.568	4772.490
737.696	4736.125
737.824	4660.221
737.952	4911.644
738.080	4613.702
738.208	4680.231
738.337	4596.375
738.465	4610.356
738.593	4566.317
738.721	4564.798
738.849	4608.029
738.977	4541.327
739.105	4503.885
739.233	4501.337
739.362	4456.654
739.490	4448.673
739.618	4490.087
739.746	4463.375
739.874	4418.048
740.002	4418.587
740.130	4407.135
740.258	4336.760
740.387	4392.000
740.515	4346.471
740.643	4338.519
740.771	4392.692
740.899	4276.308
741.027	4256.385
741.155	4250.183
741.283	4242.413
741.412	4341.567
741.540	4248.971
741.668	4216.269
741.796	4293.346
741.924	4179.038
742.052	4292.587
742.180	4167.144
742.308	4111.538
742.437	4145.644
742.565	4114.260
742.693	4178.471
742.821	4083.154
742.949	4050.394
743.077	4089.135
743.205	3988.317
743.333	4031.144
743.462	4022.135
743.590	3976.404
743.718	4012.923
743.846	3952.019
743.974	3973.702
744.102	3907.038
744.230	3959.471
744.358	3906.856
744.487	3885.798
744.615	3861.654
744.743	3843.923
744.871	3849.606
744.999	3878.173
745.127	3813.010
745.255	3762.808
745.383	3805.702
745.512	3773.673
745.640	3722.625
745.768	3740.135
745.896	3792.827
746.024	3768.885
746.152	3694.721
746.280	3741.202
746.408	3678.000
746.537	3736.875
746.665	3659.250
746.793	3639.029
746.921	3622.798
747.049	3639.702
747.177	3604.702
747.305	3772.163
747.433	3586.019
747.562	3554.827
747.690	3565.587
747.818	3603.740
747.946	3522.365
748.074	3509.125
748.202	3488.173
748.330	3499.529
748.458	3473.077
748.587	3433.673
748.715	3514.279
748.843	3429.644
748.971	3400.106
749.099	3414.375
749.227	3399.913
749.355	3435.375
749.483	3357.173
749.612	3415.029
749.740	3360.423
749.868	3346.077
749.996	3400.808
750.124	3374.990
750.252	3322.481
750.380	3319.375
750.508	3282.798
750.637	3250.942
750.765	3404.779
750.893	3239.827
751.021	3212.212
751.149	3224.231
751.277	3232.865
751.405	3198.538
751.533	3188.760
751.662	3132.798
751.790	3317.144
751.918	3139.452
752.046	3130.529
752.174	3140.837
752.302	3112.673
752.430	3092.548
752.558	3094.567
752.687	3053.971
752.815	3122.510
752.943	3042.519
753.071	3002.856
753.199	3024.404
753.327	3026.029
753.455	2956.587
753.583	3070.635
753.712	2989.240
753.840	2987.981
753.968	2943.231
754.096	2940.212
754.224	2954.288
754.352	2941.981
754.480	2934.269
754.608	2950.692
754.737	2927.740
754.865	2864.856
754.993	2966.163
755.121	2934.519
755.249	2986.779
755.377	2782.154
755.505	2882.125
755.633	2933.779
755.762	2759.337
755.890	2794.481
756.018	2734.962
756.146	2728.837
756.274	2770.875
756.402	2720.538
756.530	2706.596
756.658	2716.981
756.787	2686.875
756.915	2648.096
757.043	2632.635
757.171	2652.058
757.299	2782.279
757.427	2631.856
757.555	2661.683
757.683	2574.288
757.812	2613.212
757.940	2583.442
758.068	2566.721
758.196	2569.663
758.324	2608.625
758.452	2546.413
758.580	2537.481
758.708	2506.587
758.837	2620.750
758.965	2537.933
759.093	2542.962
759.221	2512.606
759.349	2488.663
759.477	2519.365
759.605	2504.125
759.733	2507.375
759.862	2451.317
759.990	2451.394
760.118	2462.587
760.246	2519.481
760.374	2441.288
760.502	2447.462
760.630	2443.183
760.758	2409.058
760.887	2408.115
761.015	2406.971
761.143	2404.423
761.271	2408.067
761.399	2371.885
761.527	2393.308
761.655	2372.827
761.783	2336.798
761.912	2337.596
762.040	2352.923
762.168	2311.221
762.296	2316.981
762.424	2299.115
762.552	2306.635
762.680	2264.760
762.808	2287.856
762.937	2251.596
763.065	2241.740
763.193	2234.019
763.321	2225.231
763.449	2217.558
763.577	2208.423
763.705	2217.346
763.833	2197.087
763.962	2162.529
764.090	2163.038
764.218	2153.144
764.346	2151.490
764.474	2151.490
764.602	2121.260
764.730	2136.010
764.858	2107.269
764.987	2117.173
765.115	2096.394
765.243	2082.692
765.371	2080.490
765.499	2083.029
765.627	2061.625
765.755	2053.769
765.883	2038.548
766.012	2040.144
766.140	2020.615
766.268	2012.058
766.396	2004.308
766.524	2007.144
766.652	1983.452
766.780	1987.750
766.908	1992.260
767.037	1982.606
767.165	1953.779
767.293	1962.106
767.421	1964.490
767.549	1923.462
767.677	1953.317
767.805	1918.923
767.933	1909.875
768.062	1911.115
768.190	1906.481
768.318	1910.942
768.446	1882.144
768.574	1881.135
768.702	1889.875
768.830	1883.981
768.958	1854.356
769.087	1881.673
769.215	1847.385
769.343	1848.529
769.471	1866.490
769.599	1834.327
769.727	1838.827
769.855	1820.981
769.983	1856.625
770.112	1807.981
770.240	1799.625
770.368	1778.683
770.496	1784.173
770.624	1790.558
770.752	1769.779
770.880	1798.500
771.008	1756.587
771.137	1755.240
771.265	1754.038
771.393	1726.712
771.521	1741.413
771.649	1747.087
771.777	1758.596
771.905	1768.135
772.033	1763.019
772.162	1711.269
772.290	1703.240
772.418	1719.202
772.546	1695.683
772.674	1692.788
772.802	1668.731
772.930	1683.433
773.058	1681.442
773.187	1665.308
773.315	1654.856
773.443	1653.173
773.571	1659.654
773.699	1653.356
773.827	1641.471
773.955	1658.298
774.083	1632.375
774.212	1628.231
774.340	1619.510
774.468	1615.769
774.596	1596.808
774.724	1624.250
774.852	1602.173
774.980	1586.048
775.108	1577.038
775.237	1571.721
775.365	1584.298
775.493	1578.817
775.621	1560.413
775.749	1571.192
775.877	1578.808
776.005	1561.308
776.133	1552.538
776.262	1546.827
776.390	1544.769
776.518	1528.587
776.646	1536.654
776.774	1532.683
776.902	1514.346
777.030	1502.394
777.158	1513.385
777.287	1527.587
777.415	1495.625
777.543	1489.865
777.671	1498.712
777.799	1494.010
777.927	1482.231
778.055	1481.779
778.183	1469.510
778.312	1472.615
778.440	1463.298
778.568	1486.827
778.696	1468.288
778.824	1461.202
778.952	1465.971
779.080	1448.404
779.208	1432.837
779.337	1433.058
779.465	1437.990
779.593	1433.144
779.721	1428.433
779.849	1410.817
779.977	1414.452
780.105	1402.192
780.233	1403.721
780.362	1396.038
780.490	1380.740
780.618	1393.192
780.746	1376.510
780.874	1381.731
781.002	1371.413
781.130	1370.385
781.258	1361.269
781.387	1374.058
781.515	1372.106
781.643	1348.279
781.771	1359.077
781.899	1362.298
782.027	1336.788
782.155	1336.096
782.283	1338.760
782.412	1342.865
782.540	1339.308
782.668	1316.731
782.796	1319.615
782.924	1327.154
783.052	1319.288
783.180	1304.769
783.308	1312.087
783.437	1297.260
783.565	1305.798
783.693	1305.375
783.821	1292.019
783.949	1287.740
784.077	1284.654
784.205	1283.827
784.333	1276.971
784.462	1266.567
784.590	1266.173
784.718	1260.058
784.846	1261.260
784.974	1269.548
785.102	1246.567
785.230	1243.538
785.358	1231.760
785.487	1241.115
785.615	1226.942
785.743	1236.779
785.871	1238.760
785.999	1221.990
786.127	1216.750
786.255	1205.798
786.383	1212.346
786.512	1214.365
786.640	1211.894
786.768	1195.096
786.896	1193.500
787.024	1177.875
787.152	1185.904
787.280	1205.769
787.408	1177.183
787.537	1193.125
787.665	1187.481
787.793	1168.442
787.921	1156.904
788.049	1160.279
788.177	1157.808
788.305	1158.990
788.433	1140.625
788.562	1155.125
788.690	1143.375
788.818	1146.000
788.946	1142.192
789.074	1143.442
789.202	1128.038
789.330	1126.029
789.458	1118.606
789.587	1120.356
789.715	1124.077
789.843	1126.837
789.971	1112.894
790.099	1094.779
790.227	1107.558
790.355	1113.596
790.483	1097.875
790.612	1094.971
790.740	1093.865
790.868	1091.067
790.996	1090.038
791.124	1091.385
791.252	1083.712
791.380	1063.519
791.508	1070.750
791.637	1074.538
791.765	1059.587
791.893	1065.663
792.021	1063.683
792.149	1061.087
792.277	1050.288
792.405	1037.115
792.533	1048.173
792.662	1041.298
792.790	1042.115
792.918	1054.019
793.046	1022.375
793.174	1033.337
793.302	1021.740
793.430	1016.827
793.558	1021.856
793.687	1015.779
793.815	1007.683
793.943	1022.596
794.071	1005.933
794.199	1007.250
794.327	1001.692
794.455	1009.596
794.583	992.240
794.712	994.558
794.840	983.683
794.968	988.337
795.096	992.010
795.224	956.615
795.352	1006.750
795.480	958.750
795.608	963.394
795.737	949.240
795.865	960.221
795.993	961.250
796.121	943.500
796.249	947.990
796.377	945.000
796.505	944.538
796.633	937.183
796.762	921.529
796.890	930.740
797.018	928.144
797.146	923.481
797.274	928.769
797.402	912.356
797.530	897.663
797.658	901.212
797.787	914.846
797.915	911.529
798.043	895.673
798.171	916.394
798.299	890.288
798.427	896.413
798.555	891.404
798.683	878.625
798.812	906.856
798.940	931.827
799.068	907.913
799.196	872.240
799.324	874.567
799.452	857.471
799.580	863.712
799.708	857.625
799.837	856.327
799.965	851.731
800.093	848.375
800.221	839.173
800.349	845.288
800.477	830.510
800.605	830.173
800.733	844.356
800.862	837.212
800.990	831.404
801.118	824.471
801.246	829.058
801.374	817.712
801.502	819.125
801.630	804.385
801.758	805.692
801.887	804.952
802.015	810.731
802.143	789.096
802.271	798.769
802.399	796.548
802.527	793.952
802.655	791.663
802.783	784.817
802.912	782.010
803.040	785.375
803.168	767.538
803.296	777.990
803.424	765.471
803.552	778.019
803.680	772.404
803.808	764.231
803.937	765.058
804.065	754.731
804.193	765.048
804.321	771.154
804.449	766.490
804.577	754.490
804.705	769.875
804.833	753.817
804.962	739.327
805.090	759.019
805.218	737.644
805.346	727.087
805.474	739.779
805.602	737.760
805.730	750.144
805.858	720.721
805.987	723.837
806.115	718.356
806.243	731.240
806.371	724.260
806.499	717.702
806.627	709.808
806.755	716.885
806.883	717.587
807.012	711.510
807.140	707.798
807.268	698.827
807.396	699.760
807.524	705.779
807.652	698.500
807.780	691.346
807.908	689.510
808.037	702.019
808.165	694.894
808.293	677.212
808.421	678.625
808.549	680.625
808.677	686.077
808.805	687.135
808.933	680.010
809.062	678.490
809.190	687.837
809.318	671.990
809.446	665.942
809.574	671.510
809.702	661.692
809.830	658.317
809.958	670.154
810.087	666.721
810.215	648.058
810.343	663.519
810.471	656.721
810.599	649.663
810.727	657.288
810.855	642.625
810.983	647.433
811.112	646.779
811.240	636.788
811.368	634.500
811.496	640.423
811.624	634.365
811.752	642.538
811.880	650.096
812.008	642.346
812.137	639.788
812.265	620.731
812.393	627.077
812.521	615.692
812.649	620.731
812.777	617.981
812.905	628.308
813.033	623.894
813.162	608.769
813.290	611.990
813.418	605.587
813.546	608.683
813.674	601.702
813.802	597.769
813.930	601.788
814.058	594.962
814.187	600.558
814.315	598.240
814.443	587.048
814.571	591.106
814.699	586.769
814.827	587.596
814.955	591.788
815.083	580.154
815.212	586.615
815.340	577.058
815.468	585.587
815.596	573.346
815.724	577.731
815.852	576.337
815.980	568.163
816.108	572.317
816.237	571.760
816.365	577.538
816.493	567.356
816.621	575.212
816.749	554.885
816.877	621.087
817.005	578.212
817.133	561.048
817.262	559.346
817.390	544.721
817.518	555.231
817.646	550.106
817.774	540.885
817.902	544.404
818.030	538.788
818.158	541.865
818.287	538.837
818.415	543.760
818.543	536.913
818.671	534.827
818.799	532.125
818.927	520.808
819.055	558.038
819.183	530.471
819.312	537.567
819.440	528.462
819.568	518.212
819.696	515.413
819.824	529.135
819.952	520.163
820.080	520.981
820.208	517.442
820.337	524.692
820.465	512.010
820.593	518.798
820.721	509.769
820.849	507.471
820.977	510.202
821.105	507.240
821.233	498.558
821.362	508.221
821.490	503.356
821.618	505.231
821.746	511.788
821.874	492.596
822.002	490.538
822.130	488.596
822.258	493.202
822.387	491.942
822.515	497.154
822.643	485.596
822.771	486.933
822.899	486.885
823.027	482.010
823.155	483.712
823.283	495.356
823.412	488.952
823.540	480.625
823.668	472.106
823.796	475.712
823.924	476.173
824.052	468.404
824.180	474.365
824.308	477.740
824.437	482.144
824.565	473.346
824.693	462.837
824.821	460.317
824.949	470.135
825.077	465.750
825.205	455.673
825.333	462.010
825.462	463.490
825.590	452.913
825.718	447.288
825.846	458.442
825.974	452.317
826.102	455.548
826.230	454.885
826.358	454.538
826.487	456.375
826.615	449.096
826.743	436.577
826.871	451.721
826.999	439.779
827.127	451.865
827.255	450.337
827.383	434.221
827.512	435.885
827.640	443.606
827.768	450.288
827.896	430.683
828.024	441.462
828.152	430.260
828.280	435.442
828.408	422.596
828.537	435.538
828.665	432.067
828.793	429.317
828.921	424.587
829.049	424.221
829.177	423.913
829.305	418.183
829.433	419.548
829.562	424.567
829.690	416.106
829.818	420.635
829.946	418.788
830.074	417.250
830.202	408.038
830.330	420.846
830.458	402.673
830.587	414.788
830.715	404.192
830.843	402.981
830.971	411.635
831.099	408.010
831.227	435.779
831.355	403.769
831.483	405.548
831.612	398.596
831.740	397.798
831.868	398.654
831.996	404.673
832.124	396.692
832.252	402.558
832.380	396.683
832.508	397.971
832.637	393.394
832.765	400.856
832.893	395.337
833.021	392.500
833.149	386.740
833.277	392.471
833.405	391.981
833.533	377.212
833.662	390.500
833.790	383.048
833.918	386.269
834.046	383.308
834.174	377.865
834.302	383.269
834.430	375.154
834.558	377.635
834.687	384.279
834.815	379.202
834.943	367.567
835.071	379.154
835.199	376.317
835.327	369.538
835.455	381.442
835.583	369.673
835.712	371.087
835.840	375.365
835.968	368.212
836.096	381.500
836.224	366.019
836.352	370.183
836.480	367.202
836.608	361.356
836.737	368.135
836.865	359.577
836.993	364.346
837.121	373.740
837.249	364.087
837.377	356.587
837.505	349.471
837.633	358.365
837.762	364.183
837.890	357.231
838.018	357.231
838.146	347.798
838.274	350.317
838.402	351.163
838.530	367.154
838.658	355.308
838.787	361.298
838.915	345.000
839.043	359.817
839.171	342.808
839.299	355.163
839.427	366.202
839.555	349.856
839.683	337.346
839.812	346.231
839.940	338.625
840.068	349.058
840.196	370.433
840.324	358.731
840.452	343.500
840.580	340.250
840.708	334.663
840.837	340.173
840.965	338.615
841.093	333.163
841.221	333.779
841.349	332.538
841.477	325.462
841.605	334.904
841.733	329.000
841.862	340.885
841.990	334.375
842.118	331.558
842.246	328.577
842.374	318.798
842.502	333.442
842.630	322.231
842.758	320.490
842.887	335.077
843.015	342.827
843.143	323.606
843.271	324.846
843.399	320.894
843.527	326.250
843.655	321.962
843.783	315.385
843.912	316.625
844.040	315.212
844.168	318.750
844.296	328.260
844.424	327.548
844.552	323.260
844.680	318.981
844.808	316.519
844.937	312.654
845.065	312.413
845.193	330.279
845.321	319.452
845.449	320.058
845.577	311.615
845.705	308.385
845.833	306.615
845.962	316.163
846.090	309.269
846.218	316.269
846.346	314.587
846.474	308.125
846.602	303.404
846.730	306.904
846.858	309.788
846.987	302.577
847.115	311.923
847.243	311.298
847.371	297.596
847.499	300.413
847.627	303.865
847.755	296.962
847.883	306.154
848.012	310.779
848.140	293.760
848.268	298.923
848.396	303.904
848.524	309.740
848.652	298.077
848.780	293.385
848.908	299.760
849.037	300.221
849.165	293.827
849.293	303.269
849.421	293.760
849.549	294.827
849.677	292.962
849.805	301.577
849.933	290.558
850.062	299.577
850.190	290.683
850.318	289.663
850.446	296.702
850.574	291.885
850.702	289.192
850.830	282.510
850.958	283.577
851.087	290.067
851.215	283.260
851.343	282.356
851.471	286.077
851.599	293.644
851.727	293.471
851.855	284.298
851.983	289.154
852.112	282.106
852.240	286.904
852.368	296.606
852.496	276.779
852.624	282.692
852.752	287.279
852.880	283.087
853.008	281.212
853.137	286.356
853.265	286.000
853.393	276.183
853.521	273.606
853.649	284.837
853.777	273.125
853.905	269.740
854.033	270.538
854.162	273.962
854.290	273.567
854.418	293.385
854.546	300.952
854.674	289.962
854.802	274.721
854.930	272.798
855.058	277.692
855.187	267.288
855.315	301.154
855.443	271.596
855.571	272.346
855.699	281.654
855.827	261.519
855.955	264.529
856.083	270.192
856.212	266.615
856.340	270.712
856.468	268.279
856.596	268.183
856.724	270.644
856.852	280.529
856.980	262.173
857.108	259.731
857.237	255.269
857.365	271.663
857.493	267.144
857.621	264.019
857.749	262.413
857.877	259.769
858.005	256.846
858.133	260.375
858.262	259.971
858.390	259.365
858.518	256.683
858.646	265.337
858.774	252.096
858.902	254.721
859.030	259.231
859.158	259.942
859.287	254.202
859.415	259.529
859.543	255.558
859.671	259.596
859.799	264.788
859.927	252.019
860.055	249.519
860.183	250.212
860.312	249.615
860.440	252.625
860.568	242.837
860.696	264.163
860.824	263.885
860.952	247.298
861.080	253.365
861.208	257.087
861.337	249.587
861.465	257.125
861.593	249.923
861.721	256.529
861.849	258.048
861.977	244.760
862.105	253.125
862.233	246.375
862.362	247.606
862.490	242.942
862.618	248.471
862.746	249.231
862.874	247.029
863.002	248.952
863.130	251.010
863.258	247.760
863.387	250.260
863.515	249.490
863.643	251.433
863.771	249.183
863.899	246.510
864.027	250.779
864.155	269.298
864.283	242.038
864.412	240.529
864.540	245.663
864.668	238.856
864.796	243.212
864.924	242.481
865.052	237.942
865.180	255.010
865.308	241.529
865.437	243.654
865.565	233.827
865.693	236.471
865.821	237.558
865.949	258.048
866.077	245.279
866.205	237.019
866.333	242.087
866.462	230.375
866.590	243.625
866.718	239.048
866.846	231.356
866.974	236.308
867.102	231.856
867.230	243.538
867.358	238.000
867.487	248.038
867.615	250.990
867.743	229.462
867.871	244.779
867.999	230.337
868.127	247.865
868.255	245.875
868.383	225.904
868.512	235.038
868.640	233.423
868.768	227.317
868.896	243.567
869.024	226.442
869.152	229.615
869.280	228.077
869.408	231.529
869.537	228.769
869.665	227.010
869.793	230.933
869.921	229.577
870.049	222.212
870.177	231.615
870.305	228.558
870.433	227.413
870.562	229.769
870.690	226.894
870.818	232.096
870.946	222.279
871.074	225.673
871.202	229.875
871.330	221.875
871.458	227.577
871.587	229.231
871.715	227.760
871.843	227.490
871.971	231.240
872.099	218.673
872.227	224.500
872.355	223.827
872.483	221.250
872.612	223.500
872.740	226.712
872.868	221.038
872.996	225.865
873.124	237.308
873.252	224.212
873.380	214.346
873.508	226.962
873.637	229.298
873.765	217.452
873.893	218.423
874.021	219.250
874.149	221.260
874.277	220.202
874.405	225.673
874.533	225.356
874.662	218.423
874.790	225.298
874.918	220.327
875.046	224.913
875.174	219.625
875.302	214.615
875.430	213.808
875.558	219.212
875.687	225.740
875.815	218.346
875.943	224.058
876.071	220.683
876.199	219.462
876.327	219.462
876.455	219.135
876.583	211.875
876.712	225.981
876.840	221.173
876.968	214.885
877.096	216.683
877.224	220.413
877.352	209.885
877.480	215.981
877.608	224.183
877.737	216.923
877.865	210.865
877.993	217.721
878.121	220.087
878.249	217.144
878.377	214.712
878.505	219.096
878.633	214.702
878.762	211.115
878.890	213.442
879.018	216.817
879.146	212.269
879.274	237.317
879.402	218.442
879.530	210.442
879.658	212.019
879.787	214.587
879.915	212.356
880.043	207.596
880.171	246.394
880.299	215.038
880.427	218.981
880.555	204.471
880.683	216.615
880.812	213.635
880.940	213.385
881.068	218.019
881.196	210.635
881.324	209.923
881.452	205.788
881.580	212.721
881.708	214.308
881.837	213.923
881.965	212.933
882.093	202.827
882.221	209.010
882.349	205.779
882.477	208.365
882.605	211.519
882.733	214.202
882.862	206.788
882.990	221.606
883.118	215.721
883.246	218.471
883.374	206.375
883.502	219.202
883.630	214.298
883.758	209.279
883.887	212.423
884.015	214.202
884.143	213.990
884.271	208.846
884.399	200.183
884.527	207.990
884.655	201.692
884.783	210.510
884.912	231.202
885.040	214.721
885.168	205.846
885.296	217.990
885.424	207.000
885.552	209.000
885.680	218.212
885.808	215.067
885.937	216.779
886.065	217.548
886.193	209.317
886.321	206.087
886.449	204.760
886.577	204.712
886.705	215.423
886.833	199.365
886.962	212.529
887.090	203.106
887.218	203.135
887.346	203.808
887.474	206.288
887.602	198.779
887.730	197.856
887.858	200.577
887.987	202.365
888.115	205.971
888.243	202.038
888.371	216.423
888.499	203.394
888.627	200.923
888.755	212.683
888.883	205.913
889.012	208.375
889.140	204.260
889.268	204.442
889.396	196.192
889.524	209.433
889.652	196.010
889.780	200.058
889.908	204.048
890.037	213.471
890.165	197.327
890.293	203.990
890.421	205.163
890.549	195.058
890.677	195.019
890.805	201.587
890.933	197.712
891.062	200.981
891.190	203.760
891.318	195.462
891.446	199.510
891.574	194.106
891.702	198.567
891.830	204.510
891.958	216.000
892.087	207.337
892.215	206.481
892.343	203.471
892.471	207.029
892.599	194.923
892.727	203.923
892.855	220.519
892.983	190.577
893.112	198.962
893.240	209.019
893.368	196.885
893.496	207.548
893.624	204.000
893.752	220.663
893.880	205.654
894.008	199.010
894.137	195.673
894.265	204.269
894.393	197.837
894.521	204.038
894.649	198.462
894.777	192.260
894.905	237.010
895.033	196.240
895.162	199.048
895.290	204.096
895.418	199.788
895.546	231.375
895.674	204.058
895.802	239.808
895.930	203.269
896.058	195.250
896.187	199.269
896.315	190.221
896.443	205.606
896.571	221.010
896.699	195.067
896.827	197.356
896.955	199.548
897.083	200.635
897.212	196.606
897.340	198.798
897.468	196.192
897.596	196.875
897.724	195.779
897.852	192.654
897.980	189.606
898.108	204.000
898.237	196.971
898.365	193.115
898.493	201.808
898.621	193.462
898.749	194.769
898.877	194.240
899.005	195.010
899.133	195.163
899.262	209.923
899.390	189.029
899.518	197.144
899.646	192.279
899.774	188.442
899.902	187.635
900.030	202.288
900.158	191.740
900.287	196.221
900.415	188.327
900.543	199.567
900.671	199.125
900.799	195.173
900.927	186.875
901.055	199.904
901.183	202.212
901.312	202.135
901.440	188.096
901.568	189.952
901.696	191.106
901.824	189.856
901.952	190.798
902.080	196.654
902.208	191.885
902.337	199.779
902.465	190.760
902.593	200.750
902.721	213.048
902.849	213.346
902.977	197.038
903.105	195.538
903.233	194.865
903.362	184.587
903.490	197.413
903.618	193.481
903.746	184.144
903.874	194.356
904.002	190.029
904.130	198.212
904.258	183.596
904.387	197.029
904.515	184.577
904.643	195.327
904.771	188.846
904.899	188.096
905.027	193.308
905.155	188.663
905.283	181.894
905.412	204.144
905.540	193.971
905.668	188.760
905.796	188.663
905.924	189.779
906.052	189.087
906.180	195.837
906.308	185.356
906.437	182.606
906.565	192.644
906.693	196.240
906.821	180.712
906.949	189.154
907.077	184.798
907.205	194.721
907.333	179.423
907.462	185.048
907.590	189.769
907.718	183.615
907.846	197.500
907.974	184.731
908.102	187.269
908.230	191.404
908.358	186.202
908.487	184.279
908.615	198.394
908.743	195.240
908.871	190.760
908.999	187.385
909.127	188.779
909.255	198.452
909.383	185.442
909.512	181.510
909.640	199.654
909.768	185.308
909.896	191.567
910.024	195.413
910.152	194.317
910.280	193.962
910.408	183.087
910.537	185.173
910.665	191.692
910.793	189.471
910.921	191.471
911.049	198.385
911.177	195.702
911.305	186.250
911.433	210.654
911.562	191.692
911.690	190.433
911.818	188.654
911.946	188.308
912.074	194.769
912.202	185.673
912.330	204.308
912.458	181.538
912.587	192.096
912.715	193.096
912.843	203.308
912.971	192.375
913.099	208.529
913.227	197.981
913.355	196.702
913.483	205.154
913.612	201.298
913.740	222.077
913.868	193.163
