90_130_90_Pol_at_750.00nm_cut_at_1179.00Y_01.dat
03.07.2023
11:32:02
cut middle at Y: 1179.00
top cursor: 1231 down cursor: 1127 mean of: 104 lines , 2560 datapoints
wavelength(nm)	intensity[arb. units]
585.996	9940.673
586.124	9753.337
586.252	9732.798
586.380	9737.827
586.508	9790.721
586.637	9870.615
586.765	9831.192
586.893	9890.481
587.021	9911.606
587.149	9912.692
587.277	9966.308
587.405	9944.212
587.533	9996.904
587.662	10023.192
587.790	10008.721
587.918	9998.779
588.046	9959.779
588.174	10008.144
588.302	10013.885
588.430	10038.404
588.558	10065.404
588.687	10051.471
588.815	10056.548
588.943	10057.952
589.071	10039.471
589.199	10028.567
589.327	10045.692
589.455	10103.423
589.583	10076.913
589.712	10070.490
589.840	10039.192
589.968	10055.029
590.096	10063.365
590.224	10054.808
590.352	10136.163
590.480	10063.202
590.608	10030.192
590.737	10055.077
590.865	10164.135
590.993	9993.221
591.121	10070.183
591.249	10055.769
591.377	10065.010
591.505	10190.433
591.633	10041.712
591.762	10072.115
591.890	10072.798
592.018	10159.250
592.146	10118.442
592.274	10108.365
592.402	10099.971
592.530	10262.923
592.658	10173.077
592.787	10173.288
592.915	10253.038
593.043	10124.096
593.171	10188.365
593.299	10203.173
593.427	10184.731
593.555	10227.308
593.683	10228.952
593.812	10248.894
593.940	10236.346
594.068	10262.894
594.196	10278.529
594.324	10274.894
594.452	10496.317
594.580	10361.500
594.708	10408.933
594.837	10399.606
594.965	10477.433
595.093	10448.971
595.221	10536.490
595.349	10513.231
595.477	10508.317
595.605	10538.923
595.733	10551.192
595.862	10605.558
595.990	10607.452
596.118	10658.462
596.246	10693.087
596.374	10643.635
596.502	10643.942
596.630	10681.702
596.758	10663.846
596.887	10654.875
597.015	10696.731
597.143	10700.981
597.271	10709.548
597.399	10721.308
597.527	10733.067
597.655	10731.615
597.783	10758.567
597.912	10760.817
598.040	10787.365
598.168	10732.462
598.296	10737.173
598.424	10903.837
598.552	10729.567
598.680	10741.308
598.808	10789.067
598.937	10749.875
599.065	10730.731
599.193	10806.856
599.321	10779.942
599.449	10748.346
599.577	10737.260
599.705	10749.673
599.833	10711.500
599.962	10683.192
600.090	10742.760
600.218	10723.702
600.346	10720.115
600.474	10688.144
600.602	10686.096
600.730	10709.375
600.858	10722.413
600.987	10789.615
601.115	10763.317
601.243	10822.038
601.371	10828.490
601.499	10845.750
601.627	10793.760
601.755	10773.240
601.883	10853.663
602.012	10763.875
602.140	10873.087
602.268	10856.462
602.396	10981.481
602.524	10842.067
602.652	10955.192
602.780	10914.885
602.908	10972.154
603.037	11033.538
603.165	11033.817
603.293	11027.452
603.421	11099.519
603.549	11135.519
603.677	11147.663
603.805	11149.644
603.933	11176.240
604.062	11270.346
604.190	11289.250
604.318	11289.260
604.446	11281.538
604.574	11370.712
604.702	11384.827
604.830	11381.577
604.958	11409.038
605.087	11455.625
605.215	11552.125
605.343	11607.269
605.471	11600.538
605.599	11591.721
605.727	11706.471
605.855	11647.163
605.983	11730.567
606.112	11757.769
606.240	11755.519
606.368	11783.740
606.496	11756.029
606.624	11842.433
606.752	11799.558
606.880	11881.885
607.008	11824.192
607.137	11795.356
607.265	11948.663
607.393	11898.394
607.521	11968.990
607.649	11903.462
607.777	11922.192
607.905	11970.404
608.033	11924.067
608.162	11925.260
608.290	11918.644
608.418	12021.202
608.546	11983.740
608.674	12026.567
608.802	11916.731
608.930	11949.058
609.058	11907.413
609.187	11904.712
609.315	11929.673
609.443	11886.269
609.571	12027.808
609.699	11872.288
609.827	11988.923
609.955	11922.337
610.083	11871.221
610.212	11874.942
610.340	11845.510
610.468	11861.240
610.596	11858.490
610.724	11813.587
610.852	11870.712
610.980	11843.808
611.108	11801.144
611.237	11805.731
611.365	11835.192
611.493	11808.490
611.621	11833.548
611.749	11839.442
611.877	11901.587
612.005	11827.538
612.133	11909.106
612.262	11887.038
612.390	11949.452
612.518	11946.279
612.646	11897.952
612.774	11992.837
612.902	11996.606
613.030	11974.635
613.158	11945.529
613.287	12051.663
613.415	11956.029
613.543	12021.115
613.671	12023.202
613.799	12076.067
613.927	12106.365
614.055	12124.962
614.183	12070.000
614.312	12094.981
614.440	12245.894
614.568	12190.500
614.696	12215.846
614.824	12214.096
614.952	12265.587
615.080	12277.038
615.208	12332.798
615.337	12427.615
615.465	12369.365
615.593	12401.240
615.721	12380.221
615.849	12498.971
615.977	12453.788
616.105	12518.442
616.233	12513.096
616.362	12542.481
616.490	12548.337
616.618	12573.933
616.746	12705.779
616.874	12690.375
617.002	12688.317
617.130	12712.865
617.258	12662.683
617.387	12713.385
617.515	12750.740
617.643	12735.327
617.771	12839.692
617.899	12769.327
618.027	12791.337
618.155	12821.221
618.283	12820.519
618.412	12832.663
618.540	12904.990
618.668	12840.269
618.796	12861.779
618.924	12821.212
619.052	12872.760
619.180	12862.519
619.308	12848.692
619.437	12836.971
619.565	12862.317
619.693	12852.817
619.821	12888.356
619.949	12848.500
620.077	12877.212
620.205	12925.385
620.333	12931.038
620.462	12873.808
620.590	12899.462
620.718	12938.269
620.846	12917.163
620.974	12896.337
621.102	12961.644
621.230	12931.077
621.358	13095.394
621.487	12885.788
621.615	12942.077
621.743	12863.894
621.871	12957.394
621.999	12847.038
622.127	12903.356
622.255	12875.125
622.383	12858.019
622.512	12870.298
622.640	12856.183
622.768	12912.260
622.896	12932.596
623.024	12920.712
623.152	12861.038
623.280	12953.250
623.408	12876.981
623.537	12933.683
623.665	12849.510
623.793	12935.894
623.921	12913.875
624.049	12879.606
624.177	12877.962
624.305	12879.971
624.433	12867.731
624.562	12913.260
624.690	13008.413
624.818	12854.125
624.946	12868.317
625.074	12825.558
625.202	12843.808
625.330	12875.538
625.458	12971.817
625.587	12849.519
625.715	12943.817
625.843	12868.231
625.971	12894.971
626.099	12901.885
626.227	12925.490
626.355	12883.413
626.483	12944.769
626.612	12875.462
626.740	12931.279
626.868	12882.365
626.996	12945.577
627.124	12916.933
627.252	12917.769
627.380	12907.404
627.508	12881.606
627.637	12942.750
627.765	12950.683
627.893	13002.221
628.021	13052.971
628.149	12952.413
628.277	13036.519
628.405	13002.865
628.533	13014.567
628.662	13035.490
628.790	13125.394
628.918	13039.279
629.046	13157.721
629.174	13048.423
629.302	13119.317
629.430	13057.106
629.558	13089.740
629.687	13089.827
629.815	13161.029
629.943	13233.519
630.071	13179.644
630.199	13176.856
630.327	13223.000
630.455	13214.490
630.583	13179.173
630.712	13230.837
630.840	13263.635
630.968	13247.221
631.096	13274.981
631.224	13312.327
631.352	13406.962
631.480	13339.615
631.608	13539.442
631.737	13300.769
631.865	13449.817
631.993	13408.904
632.121	13555.567
632.249	13391.413
632.377	13405.529
632.505	13416.452
632.633	13422.692
632.762	13376.000
632.890	13453.087
633.018	13397.846
633.146	13425.923
633.274	13419.788
633.402	13430.250
633.530	13393.183
633.658	13405.077
633.787	13374.885
633.915	13382.029
634.043	13435.462
634.171	13415.067
634.299	13422.558
634.427	13387.558
634.555	13629.942
634.683	13373.904
634.812	13414.317
634.940	13353.163
635.068	13335.019
635.196	13364.894
635.324	13327.558
635.452	13322.038
635.580	13422.663
635.708	13249.375
635.837	13278.808
635.965	13241.096
636.093	13196.683
636.221	13196.962
636.349	13150.375
636.477	13136.288
636.605	13169.087
636.733	13141.529
636.862	13110.298
636.990	13124.067
637.118	13072.471
637.246	13013.510
637.374	13147.721
637.502	12962.442
637.630	12964.433
637.758	12968.067
637.887	12902.673
638.015	13016.798
638.143	12961.413
638.271	12835.144
638.399	12889.721
638.527	12784.163
638.655	12823.519
638.783	12822.192
638.912	12859.462
639.040	12751.740
639.168	12727.192
639.296	12710.519
639.424	12775.625
639.552	12716.365
639.680	12756.058
639.808	12735.067
639.937	12662.433
640.065	12643.606
640.193	12647.481
640.321	12722.990
640.449	12728.317
640.577	12595.462
640.705	12648.337
640.833	12618.712
640.962	12728.471
641.090	12620.875
641.218	12592.048
641.346	12672.356
641.474	12650.356
641.602	12608.827
641.730	12600.904
641.858	12605.856
641.987	12557.125
642.115	12775.471
642.243	12591.712
642.371	12768.346
642.499	12616.654
642.627	12684.077
642.755	12607.308
642.883	12642.875
643.012	12628.952
643.140	12650.567
643.268	12681.663
643.396	12620.769
643.524	12631.010
643.652	12717.423
643.780	12612.990
643.908	12610.471
644.037	12746.923
644.165	12732.067
644.293	12828.558
644.421	12607.654
644.549	12666.587
644.677	12662.308
644.805	12636.077
644.933	12642.067
645.062	12653.567
645.190	12813.933
645.318	12644.962
645.446	12588.231
645.574	12593.260
645.702	12651.269
645.830	12655.731
645.958	12596.750
646.087	12609.125
646.215	12581.135
646.343	12589.548
646.471	12741.596
646.599	12599.106
646.727	12588.481
646.855	12551.779
646.983	12532.327
647.112	12598.663
647.240	12533.567
647.368	12628.337
647.496	12539.692
647.624	12546.981
647.752	12545.760
647.880	12508.106
648.008	12525.163
648.137	12559.317
648.265	12496.183
648.393	12544.644
648.521	12436.625
648.649	12586.577
648.777	12499.760
648.905	12427.769
649.033	12513.769
649.162	12385.663
649.290	12320.635
649.418	12326.010
649.546	12501.452
649.674	12320.500
649.802	12288.644
649.930	12237.077
650.058	12207.731
650.187	12260.846
650.315	12174.808
650.443	12212.615
650.571	12162.375
650.699	12116.779
650.827	12109.144
650.955	12075.452
651.083	12168.740
651.212	12055.000
651.340	12064.337
651.468	11988.817
651.596	12021.769
651.724	12010.019
651.852	11975.115
651.980	11934.279
652.108	11913.654
652.237	11914.423
652.365	11852.654
652.493	11832.904
652.621	11801.010
652.749	11807.144
652.877	11793.452
653.005	11826.038
653.133	11759.500
653.262	11730.923
653.390	11696.442
653.518	11839.962
653.646	11662.548
653.774	11611.519
653.902	11725.462
654.030	11640.471
654.158	11597.067
654.287	11612.837
654.415	11572.875
654.543	11593.144
654.671	11563.750
654.799	11524.269
654.927	11511.510
655.055	11470.798
655.183	11462.606
655.312	11467.308
655.440	11407.115
655.568	11423.442
655.696	11466.990
655.824	11389.971
655.952	11368.750
656.080	11301.337
656.208	11340.635
656.337	11327.990
656.465	11487.500
656.593	11298.808
656.721	11309.596
656.849	11380.538
656.977	11177.404
657.105	11227.683
657.233	11206.212
657.362	11246.692
657.490	11214.913
657.618	11176.317
657.746	11172.279
657.874	11060.202
658.002	11045.115
658.130	11043.731
658.258	11003.087
658.387	10936.144
658.515	10956.548
658.643	10924.990
658.771	10997.413
658.899	10875.096
659.027	10916.490
659.155	10879.625
659.283	10846.250
659.412	10847.529
659.540	10817.615
659.668	10863.221
659.796	10898.279
659.924	10819.433
660.052	10915.981
660.180	10822.106
660.308	10849.548
660.437	10852.423
660.565	10761.913
660.693	10689.990
660.821	10867.673
660.949	10672.173
661.077	10697.096
661.205	10796.000
661.333	10630.990
661.462	10611.558
661.590	10727.212
661.718	10598.346
661.846	10611.654
661.974	10556.769
662.102	10571.038
662.230	10571.529
662.358	10452.317
662.487	10540.000
662.615	10495.375
662.743	10501.058
662.871	10495.288
662.999	10378.702
663.127	10387.115
663.255	10377.173
663.383	10530.500
663.512	10307.288
663.640	10408.279
663.768	10409.952
663.896	10312.490
664.024	10315.596
664.152	10304.260
664.280	10395.769
664.408	10261.385
664.537	10237.327
664.665	10283.260
664.793	10273.048
664.921	10227.596
665.049	10272.394
665.177	10198.154
665.305	10205.577
665.433	10178.308
665.562	10322.471
665.690	10194.654
665.818	10322.740
665.946	10112.865
666.074	10112.510
666.202	10133.740
666.330	10057.154
666.458	10479.048
666.587	10047.452
666.715	10067.654
666.843	10026.269
666.971	10035.404
667.099	10052.692
667.227	10081.808
667.355	10078.933
667.483	9993.365
667.612	10006.990
667.740	10008.962
667.868	9941.087
667.996	9943.010
668.124	9989.808
668.252	10054.500
668.380	9915.067
668.508	9938.471
668.637	9877.846
668.765	9916.442
668.893	9894.019
669.021	9822.385
669.149	9888.423
669.277	9796.519
669.405	9898.500
669.533	9877.087
669.662	9786.106
669.790	9768.577
669.918	9781.769
670.046	9899.135
670.174	9675.740
670.302	9693.317
670.430	9633.740
670.558	9700.163
670.687	9795.856
670.815	9637.971
670.943	9660.346
671.071	9558.096
671.199	9537.163
671.327	9536.548
671.455	9567.038
671.583	9512.144
671.712	9477.260
671.840	9547.990
671.968	9629.231
672.096	9588.173
672.224	9374.663
672.352	9404.163
672.480	9319.644
672.608	9381.952
672.737	9333.019
672.865	9252.423
672.993	9260.885
673.121	9228.827
673.249	9222.269
673.377	9156.606
673.505	9149.760
673.633	9217.221
673.762	9102.404
673.890	9119.038
674.018	9088.385
674.146	9045.981
674.274	9081.587
674.402	9102.625
674.530	9035.981
674.658	8993.721
674.787	8968.769
674.915	9098.346
675.043	8915.942
675.171	8925.462
675.299	8861.385
675.427	8830.712
675.555	8811.433
675.683	8837.173
675.812	8767.462
675.940	8739.865
676.068	8716.346
676.196	8724.596
676.324	8668.442
676.452	8626.731
676.580	8579.510
676.708	8582.548
676.837	8561.702
676.965	8671.048
677.093	8690.971
677.221	8530.769
677.349	8476.740
677.477	8544.356
677.605	8429.558
677.733	8413.269
677.862	8411.490
677.990	8399.260
678.118	8415.644
678.246	8349.394
678.374	8389.365
678.502	8283.644
678.630	8232.115
678.758	8258.529
678.887	8370.452
679.015	8168.356
679.143	8134.981
679.271	8125.346
679.399	8122.038
679.527	8138.125
679.655	8165.817
679.783	8038.058
679.912	8059.567
680.040	8201.625
680.168	7994.096
680.296	8007.663
680.424	7970.394
680.552	7951.913
680.680	7932.288
680.808	7903.019
680.937	7865.394
681.065	7940.904
681.193	7849.154
681.321	7813.375
681.449	7850.212
681.577	7812.327
681.705	7791.221
681.833	7811.817
681.962	7785.558
682.090	7725.558
682.218	7725.385
682.346	7720.356
682.474	7672.990
682.602	7662.423
682.730	7699.865
682.858	7627.423
682.987	7633.952
683.115	7663.029
683.243	7569.394
683.371	7617.962
683.499	7560.769
683.627	7598.529
683.755	7556.788
683.883	7512.913
684.012	7547.490
684.140	7475.558
684.268	7496.308
684.396	7560.327
684.524	7462.942
684.652	7495.269
684.780	7481.837
684.908	7480.125
685.037	7462.913
685.165	7408.596
685.293	7505.837
685.421	7414.962
685.549	7408.144
685.677	7343.702
685.805	7398.712
685.933	7355.135
686.062	7362.433
686.190	7314.846
686.318	7309.231
686.446	7281.087
686.574	7249.385
686.702	7326.462
686.830	7241.048
686.958	7277.596
687.087	7192.106
687.215	7228.394
687.343	7200.038
687.471	7327.067
687.599	7132.442
687.727	7127.587
687.855	7108.385
687.983	7069.933
688.112	7119.808
688.240	7069.519
688.368	7078.702
688.496	7015.856
688.624	6986.519
688.752	7164.788
688.880	6978.500
689.008	6947.019
689.137	7001.221
689.265	6917.423
689.393	6889.654
689.521	6920.529
689.649	7014.750
689.777	6901.269
689.905	6969.413
690.033	6834.308
690.162	6824.163
690.290	6853.423
690.418	6787.673
690.546	6840.500
690.674	6809.538
690.802	6821.327
690.930	6747.413
691.058	6727.115
691.187	6685.788
691.315	6641.154
691.443	6658.731
691.571	6686.183
691.699	6608.894
691.827	6593.702
691.955	6596.519
692.083	6585.337
692.212	6568.837
692.340	6532.385
692.468	6594.644
692.596	6533.250
692.724	6487.423
692.852	6534.212
692.980	6497.192
693.108	6542.202
693.237	6413.798
693.365	6392.731
693.493	6382.154
693.621	6385.615
693.749	6306.577
693.877	6397.000
694.005	6318.462
694.133	6281.865
694.262	6337.173
694.390	6231.712
694.518	6238.769
694.646	6225.837
694.774	6162.548
694.902	6154.135
695.030	6188.904
695.158	6132.596
695.287	6122.510
695.415	6114.221
695.543	6102.019
695.671	6023.288
695.799	6169.971
695.927	6067.125
696.055	6033.817
696.183	5972.394
696.312	6161.481
696.440	6000.952
696.568	5983.567
696.696	5888.567
696.824	5851.817
696.952	5863.231
697.080	5862.962
697.208	5801.981
697.337	5811.038
697.465	5769.962
697.593	5744.308
697.721	5850.942
697.849	5714.596
697.977	5744.212
698.105	5783.779
698.233	5700.692
698.362	5646.990
698.490	5768.452
698.618	5605.644
698.746	5591.788
698.874	5639.933
699.002	5601.423
699.130	5625.346
699.258	5547.856
699.387	5485.962
699.515	5531.058
699.643	5534.538
699.771	5579.346
699.899	5437.865
700.027	5387.385
700.155	5469.135
700.283	5338.827
700.412	5380.010
700.540	5380.798
700.668	5416.000
700.796	5305.288
700.924	5358.125
701.052	5325.173
701.180	5314.933
701.308	5235.452
701.437	5206.577
701.565	5209.029
701.693	5239.087
701.821	5380.510
701.949	5133.615
702.077	5144.356
702.205	5227.452
702.333	5136.298
702.462	5054.423
702.590	5127.231
702.718	5041.644
702.846	5211.788
702.974	5017.596
703.102	4988.779
703.230	5015.971
703.358	4951.731
703.487	4946.933
703.615	4910.846
703.743	4879.683
703.871	4868.846
703.999	4871.577
704.127	4825.000
704.255	4801.971
704.383	4832.904
704.512	4875.096
704.640	4822.231
704.768	4874.529
704.896	4734.865
705.024	4698.173
705.152	4724.519
705.280	4742.856
705.408	4644.769
705.537	4621.952
705.665	4643.510
705.793	4614.385
705.921	4607.942
706.049	4544.385
706.177	4603.327
706.305	4531.933
706.433	4575.913
706.562	4544.904
706.690	4538.798
706.818	4515.913
706.946	4462.413
707.074	4433.067
707.202	4402.519
707.330	4428.058
707.458	4383.587
707.587	4343.731
707.715	4379.481
707.843	4364.385
707.971	4386.875
708.099	4306.010
708.227	4278.981
708.355	4280.202
708.483	4244.317
708.612	4285.077
708.740	4210.933
708.868	4212.875
708.996	4273.510
709.124	4257.077
709.252	4196.846
709.380	4198.346
709.508	4151.663
709.637	4175.856
709.765	4132.644
709.893	4161.038
710.021	4093.750
710.149	4184.952
710.277	4034.269
710.405	4056.279
710.533	4069.375
710.662	4026.087
710.790	4135.087
710.918	3993.788
711.046	4066.904
711.174	3989.673
711.302	4015.558
711.430	3963.981
711.558	3999.337
711.687	3954.663
711.815	3906.067
711.943	3894.596
712.071	3883.202
712.199	3908.596
712.327	3948.327
712.455	3858.144
712.583	3990.933
712.712	3868.038
712.840	3882.010
712.968	3815.308
713.096	3804.538
713.224	3796.087
713.352	3797.663
713.480	3713.038
713.608	3721.192
713.737	3705.615
713.865	3755.587
713.993	3716.019
714.121	3710.394
714.249	3665.702
714.377	3662.894
714.505	3656.731
714.633	3651.000
714.762	3613.952
714.890	3623.317
715.018	3603.442
715.146	3635.644
715.274	3574.606
715.402	3560.702
715.530	3553.702
715.658	3597.269
715.787	3545.663
715.915	3628.837
716.043	3527.788
716.171	3634.856
716.299	3493.413
716.427	3548.394
716.555	3462.702
716.683	3445.529
716.812	3454.048
716.940	3429.394
717.068	3392.144
717.196	3553.442
717.324	3429.010
717.452	3404.875
717.580	3433.683
717.708	3359.288
717.837	3359.837
717.965	3387.308
718.093	3341.337
718.221	3377.192
718.349	3374.923
718.477	3307.904
718.605	3364.413
718.733	3330.952
718.862	3332.971
718.990	3258.337
719.118	3307.885
719.246	3224.875
719.374	3215.433
719.502	3259.163
719.630	3340.942
719.758	3181.596
719.887	3160.240
720.015	3219.644
720.143	3220.510
720.271	3116.567
720.399	3186.298
720.527	3153.394
720.655	3206.029
720.783	3110.712
720.912	3084.279
721.040	3092.702
721.168	3105.837
721.296	3043.788
721.424	3031.567
721.552	3026.038
721.680	3078.529
721.808	3026.904
721.937	3021.163
722.065	3047.692
722.193	2991.865
722.321	2989.394
722.449	2975.019
722.577	2911.933
722.705	2914.923
722.833	2932.769
722.962	2930.019
723.090	2899.913
723.218	2877.990
723.346	2923.769
723.474	2843.692
723.602	2832.817
723.730	2819.135
723.858	2807.462
723.987	2807.462
724.115	2791.596
724.243	2830.548
724.371	2754.856
724.499	2752.529
724.627	2751.904
724.755	2730.865
724.883	2834.260
725.012	2908.288
725.140	2735.904
725.268	2667.663
725.396	2734.413
725.524	2803.827
725.652	2651.125
725.780	2770.067
725.908	2630.087
726.037	2639.192
726.165	2645.298
726.293	2595.038
726.421	2622.385
726.549	2649.692
726.677	2614.260
726.805	2558.038
726.933	2577.115
727.062	2552.702
727.190	2533.510
727.318	2519.702
727.446	2516.683
727.574	2501.337
727.702	2505.865
727.830	2544.721
727.958	2536.019
728.087	2557.250
728.215	2571.462
728.343	2494.442
728.471	2503.538
728.599	2572.173
728.727	2478.404
728.855	2482.731
728.983	2441.769
729.112	2473.962
729.240	2444.750
729.368	2444.308
729.496	2447.096
729.624	2434.106
729.752	2432.327
729.880	2412.962
730.008	2418.529
730.137	2410.481
730.265	2395.452
730.393	2444.462
730.521	2423.798
730.649	2366.971
730.777	2350.846
730.905	2358.827
731.033	2327.923
731.162	2359.827
731.290	2358.519
731.418	2336.048
731.546	2318.779
731.674	2316.885
731.802	2308.365
731.930	2323.038
732.058	2293.221
732.187	2286.577
732.315	2288.663
732.443	2310.413
732.571	2292.692
732.699	2249.798
732.827	2279.212
732.955	2260.433
733.083	2242.029
733.212	2250.356
733.340	2239.712
733.468	2213.673
733.596	2210.163
733.724	2204.827
733.852	2198.442
733.980	2180.779
734.108	2217.173
734.237	2195.731
734.365	2187.288
734.493	2157.510
734.621	2166.827
734.749	2166.144
734.877	2136.538
735.005	2148.327
735.133	2151.269
735.262	2152.452
735.390	2103.308
735.518	2122.538
735.646	2120.865
735.774	2119.817
735.902	2101.125
736.030	2091.865
736.158	2093.106
736.287	2111.144
736.415	2091.837
736.543	2061.183
736.671	2048.923
736.799	2056.029
736.927	2064.750
737.055	2068.933
737.183	2029.721
737.312	2013.471
737.440	2020.135
737.568	2023.894
737.696	2030.221
737.824	2024.837
737.952	2223.529
738.080	1999.615
738.208	1990.250
738.337	1981.856
738.465	1990.538
738.593	1974.106
738.721	1956.942
738.849	1968.067
738.977	1955.798
739.105	1970.077
739.233	1954.885
739.362	1937.827
739.490	1936.519
739.618	1928.308
739.746	1920.279
739.874	1907.587
740.002	1917.538
740.130	1889.731
740.258	1885.933
740.387	1900.683
740.515	1903.500
740.643	1855.529
740.771	1881.837
740.899	1858.125
741.027	1851.144
741.155	1853.933
741.283	1855.221
741.412	1859.913
741.540	1843.442
741.668	1827.192
741.796	1837.413
741.924	1812.212
742.052	1807.058
742.180	1811.163
742.308	1788.365
742.437	1786.846
742.565	1788.683
742.693	1805.000
742.821	1788.106
742.949	1765.106
743.077	1743.462
743.205	1749.731
743.333	1738.548
743.462	1765.510
743.590	1729.462
743.718	1735.144
743.846	1722.375
743.974	1753.394
744.102	1714.038
744.230	1708.365
744.358	1710.077
744.487	1699.202
744.615	1679.798
744.743	1690.837
744.871	1678.462
744.999	1666.827
745.127	1680.894
745.255	1654.452
745.383	1648.356
745.512	1651.567
745.640	1639.990
745.768	1644.356
745.896	1635.596
746.024	1638.683
746.152	1635.337
746.280	1617.087
746.408	1617.000
746.537	1608.106
746.665	1626.404
746.793	1590.106
746.921	1592.298
747.049	1591.971
747.177	1582.260
747.305	1594.221
747.433	1580.000
747.562	1550.144
747.690	1559.779
747.818	1554.760
747.946	1558.933
748.074	1539.125
748.202	1540.240
748.330	1533.317
748.458	1525.288
748.587	1536.452
748.715	1530.846
748.843	1512.173
748.971	1512.077
749.099	1517.212
749.227	1495.548
749.355	1521.971
749.483	1483.644
749.612	1509.644
749.740	1498.673
749.868	1473.740
749.996	1455.990
750.124	1487.837
750.252	1460.337
750.380	1458.240
750.508	1474.269
750.637	1453.875
750.765	1447.221
750.893	1436.433
751.021	1429.548
751.149	1441.990
751.277	1421.721
751.405	1413.606
751.533	1430.692
751.662	1410.500
751.790	1402.221
751.918	1399.673
752.046	1383.750
752.174	1378.673
752.302	1372.481
752.430	1372.933
752.558	1369.587
752.687	1370.423
752.815	1364.202
752.943	1359.971
753.071	1342.337
753.199	1353.798
753.327	1356.827
753.455	1326.837
753.583	1312.731
753.712	1320.106
753.840	1330.173
753.968	1316.221
754.096	1318.125
754.224	1305.365
754.352	1284.365
754.480	1310.240
754.608	1290.615
754.737	1287.865
754.865	1295.173
754.993	1292.288
755.121	1272.904
755.249	1254.346
755.377	1244.385
755.505	1259.788
755.633	1260.154
755.762	1237.029
755.890	1255.750
756.018	1246.798
756.146	1223.308
756.274	1220.846
756.402	1217.029
756.530	1230.846
756.658	1215.606
756.787	1200.202
756.915	1196.058
757.043	1193.500
757.171	1202.587
757.299	1198.115
757.427	1175.913
757.555	1172.423
757.683	1179.212
757.812	1182.490
757.940	1172.990
758.068	1167.029
758.196	1159.375
758.324	1149.885
758.452	1144.519
758.580	1150.519
758.708	1143.923
758.837	1148.212
758.965	1144.923
759.093	1135.433
759.221	1112.183
759.349	1107.115
759.477	1101.202
759.605	1089.135
759.733	1114.500
759.862	1087.317
759.990	1102.163
760.118	1087.106
760.246	1095.115
760.374	1090.808
760.502	1076.808
760.630	1062.885
760.758	1063.990
760.887	1062.221
761.015	1046.663
761.143	1062.817
761.271	1045.337
761.399	1047.846
761.527	1055.096
761.655	1048.317
761.783	1029.240
761.912	1019.327
762.040	1039.644
762.168	1019.596
762.296	1012.933
762.424	1023.365
762.552	1014.192
762.680	984.500
762.808	1014.558
762.937	995.942
763.065	988.346
763.193	994.144
763.321	984.029
763.449	971.683
763.577	964.894
763.705	979.385
763.833	975.452
763.962	953.933
764.090	959.279
764.218	954.654
764.346	942.577
764.474	950.683
764.602	935.981
764.730	937.923
764.858	946.375
764.987	928.240
765.115	922.221
765.243	912.538
765.371	924.952
765.499	917.375
765.627	906.712
765.755	913.029
765.883	909.202
766.012	901.481
766.140	894.317
766.268	891.875
766.396	895.154
766.524	905.144
766.652	881.154
766.780	885.731
766.908	884.404
767.037	897.077
767.165	872.567
767.293	876.356
767.421	871.904
767.549	855.625
767.677	884.856
767.805	857.558
767.933	863.250
768.062	852.500
768.190	844.183
768.318	853.606
768.446	837.183
768.574	832.144
768.702	847.760
768.830	835.913
768.958	831.663
769.087	839.558
769.215	830.952
769.343	822.702
769.471	833.558
769.599	817.894
769.727	816.558
769.855	813.346
769.983	838.663
770.112	807.904
770.240	795.452
770.368	795.135
770.496	795.433
770.624	802.654
770.752	787.048
770.880	802.346
771.008	779.510
771.137	788.750
771.265	774.096
771.393	763.279
771.521	778.567
771.649	783.817
771.777	799.538
771.905	811.385
772.033	797.096
772.162	756.077
772.290	757.538
772.418	759.635
772.546	755.260
772.674	754.173
772.802	748.269
772.930	754.529
773.058	740.981
773.187	739.596
773.315	740.654
773.443	740.885
773.571	750.019
773.699	730.654
773.827	746.317
773.955	745.625
774.083	738.962
774.212	719.923
774.340	729.125
774.468	713.385
774.596	720.875
774.724	730.760
774.852	720.798
774.980	708.327
775.108	714.067
775.237	699.971
775.365	699.125
775.493	708.106
775.621	696.712
775.749	703.019
775.877	712.394
776.005	709.721
776.133	695.115
776.262	694.971
776.390	695.750
776.518	676.894
776.646	690.067
776.774	686.038
776.902	677.240
777.030	672.712
777.158	677.817
777.287	685.144
777.415	661.981
777.543	668.933
777.671	665.038
777.799	658.837
777.927	667.808
778.055	667.135
778.183	661.606
778.312	654.163
778.440	662.125
778.568	673.740
778.696	659.587
778.824	659.731
778.952	657.135
779.080	648.212
779.208	646.192
779.337	653.740
779.465	650.981
779.593	633.308
779.721	643.865
779.849	641.221
779.977	630.298
780.105	632.077
780.233	633.587
780.362	628.490
780.490	622.423
780.618	625.663
780.746	622.135
780.874	613.779
781.002	627.115
781.130	613.462
781.258	606.779
781.387	622.904
781.515	614.760
781.643	604.663
781.771	605.029
781.899	612.933
782.027	613.000
782.155	602.490
782.283	597.288
782.412	606.817
782.540	602.423
782.668	598.731
782.796	592.260
782.924	599.375
783.052	600.404
783.180	587.308
783.308	589.981
783.437	581.548
783.565	591.663
783.693	582.538
783.821	588.048
783.949	589.260
784.077	579.587
784.205	578.048
784.333	572.654
784.462	570.952
784.590	568.154
784.718	552.981
784.846	576.000
784.974	587.760
785.102	557.385
785.230	564.538
785.358	555.510
785.487	567.115
785.615	551.952
785.743	558.750
785.871	559.442
785.999	561.365
786.127	559.183
786.255	550.308
786.383	540.981
786.512	550.250
786.640	545.702
786.768	535.971
786.896	542.279
787.024	528.683
787.152	533.721
787.280	551.125
787.408	535.038
787.537	542.635
787.665	538.981
787.793	524.577
787.921	528.721
788.049	521.519
788.177	523.808
788.305	523.058
788.433	526.077
788.562	516.837
788.690	517.288
788.818	523.327
788.946	513.231
789.074	508.702
789.202	509.452
789.330	506.202
789.458	510.538
789.587	507.548
789.715	517.144
789.843	514.346
789.971	502.692
790.099	496.356
790.227	499.404
790.355	498.548
790.483	504.202
790.612	500.635
790.740	501.538
790.868	493.904
790.996	509.183
791.124	502.894
791.252	497.269
791.380	484.683
791.508	493.269
791.637	495.260
791.765	475.250
791.893	486.433
792.021	489.923
792.149	478.596
792.277	481.731
792.405	476.375
792.533	483.288
792.662	469.913
792.790	475.846
792.918	486.413
793.046	473.308
793.174	472.567
793.302	468.413
793.430	471.471
793.558	479.731
793.687	470.298
793.815	460.894
793.943	474.731
794.071	456.769
794.199	457.663
794.327	458.683
794.455	459.413
794.583	459.779
794.712	458.952
794.840	452.798
794.968	457.269
795.096	460.327
795.224	438.885
795.352	488.404
795.480	438.288
795.608	439.990
795.737	439.760
795.865	438.154
795.993	444.423
796.121	440.635
796.249	433.904
796.377	433.356
796.505	437.760
796.633	438.808
796.762	428.481
796.890	430.260
797.018	433.827
797.146	435.231
797.274	434.971
797.402	420.212
797.530	415.394
797.658	424.144
797.787	438.808
797.915	430.125
798.043	414.202
798.171	425.885
798.299	411.760
798.427	418.587
798.555	423.663
798.683	408.067
798.812	441.615
798.940	461.346
799.068	440.135
799.196	417.798
799.324	417.192
799.452	403.798
799.580	405.702
799.708	403.356
799.837	397.394
799.965	397.644
800.093	401.942
800.221	393.644
800.349	400.337
800.477	387.337
800.605	391.413
800.733	401.846
800.862	391.846
800.990	387.904
801.118	388.760
801.246	392.308
801.374	392.163
801.502	386.221
801.630	385.587
801.758	383.413
801.887	380.096
802.015	385.615
802.143	369.990
802.271	376.654
802.399	371.567
802.527	366.904
802.655	378.385
802.783	368.827
802.912	366.375
803.040	372.587
803.168	366.375
803.296	376.971
803.424	363.760
803.552	372.548
803.680	368.433
803.808	369.202
803.937	358.865
804.065	372.808
804.193	370.683
804.321	375.317
804.449	372.760
804.577	366.615
804.705	379.538
804.833	366.798
804.962	356.471
805.090	356.683
805.218	349.423
805.346	349.962
805.474	363.548
805.602	357.683
805.730	363.692
805.858	342.115
805.987	351.202
806.115	350.048
806.243	356.442
806.371	347.404
806.499	347.923
806.627	339.462
806.755	344.202
806.883	342.462
807.012	342.923
807.140	351.529
807.268	332.077
807.396	340.096
807.524	338.788
807.652	344.567
807.780	337.856
807.908	335.375
808.037	351.337
808.165	344.596
808.293	326.596
808.421	333.721
808.549	331.606
808.677	330.856
808.805	351.087
808.933	334.913
809.062	333.048
809.190	343.519
809.318	339.731
809.446	323.827
809.574	336.394
809.702	321.760
809.830	321.788
809.958	335.731
810.087	325.673
810.215	323.885
810.343	331.760
810.471	325.048
810.599	319.288
810.727	327.702
810.855	317.856
810.983	323.904
811.112	320.173
811.240	319.029
811.368	324.683
811.496	322.654
811.624	318.519
811.752	317.606
811.880	334.048
812.008	322.481
812.137	330.308
812.265	314.356
812.393	317.538
812.521	312.490
812.649	314.875
812.777	305.683
812.905	317.779
813.033	322.317
813.162	306.010
813.290	308.654
813.418	303.394
813.546	310.635
813.674	306.779
813.802	300.663
813.930	299.519
814.058	300.990
814.187	304.913
814.315	300.933
814.443	296.452
814.571	302.394
814.699	293.173
814.827	295.683
814.955	300.337
815.083	296.933
815.212	301.058
815.340	292.740
815.468	306.644
815.596	290.202
815.724	298.740
815.852	297.154
815.980	292.308
816.108	291.183
816.237	295.202
816.365	304.067
816.493	291.817
816.621	299.587
816.749	287.731
816.877	354.981
817.005	305.529
817.133	296.019
817.262	292.183
817.390	284.654
817.518	296.096
817.646	283.058
817.774	279.356
817.902	281.712
818.030	279.731
818.158	292.029
818.287	286.500
818.415	281.481
818.543	284.587
818.671	281.760
818.799	278.058
818.927	273.808
819.055	304.769
819.183	286.606
819.312	301.000
819.440	276.587
819.568	276.163
819.696	275.500
819.824	275.654
819.952	273.260
820.080	276.250
820.208	272.913
820.337	278.567
820.465	267.654
820.593	273.154
820.721	271.260
820.849	270.067
820.977	273.981
821.105	269.096
821.233	262.490
821.362	270.731
821.490	261.269
821.618	273.990
821.746	280.798
821.874	266.519
822.002	261.308
822.130	267.115
822.258	266.202
822.387	264.615
822.515	269.683
822.643	263.404
822.771	260.990
822.899	266.327
823.027	258.942
823.155	266.952
823.283	270.885
823.412	273.423
823.540	255.154
823.668	254.240
823.796	260.904
823.924	255.269
824.052	256.529
824.180	262.683
824.308	255.000
824.437	268.615
824.565	257.462
824.693	246.346
824.821	254.644
824.949	260.587
825.077	258.106
825.205	247.673
825.333	251.394
825.462	256.654
825.590	250.404
825.718	249.885
825.846	254.096
825.974	251.067
826.102	251.038
826.230	252.038
826.358	257.500
826.487	248.240
826.615	246.337
826.743	245.087
826.871	252.865
826.999	245.375
827.127	248.644
827.255	248.760
827.383	242.212
827.512	238.212
827.640	245.433
827.768	264.452
827.896	238.077
828.024	248.981
828.152	242.019
828.280	242.529
828.408	238.288
828.537	242.587
828.665	238.327
828.793	243.942
828.921	241.279
829.049	241.327
829.177	239.038
829.305	234.519
829.433	235.144
829.562	234.798
829.690	239.250
829.818	243.760
829.946	236.933
830.074	234.087
830.202	230.096
830.330	242.683
830.458	224.971
830.587	243.269
830.715	233.548
830.843	230.692
830.971	236.529
831.099	233.885
831.227	260.990
831.355	228.962
831.483	229.250
831.612	230.019
831.740	224.298
831.868	226.538
831.996	234.817
832.124	231.423
832.252	234.317
832.380	228.981
832.508	223.875
832.637	229.192
832.765	233.548
832.893	234.769
833.021	222.750
833.149	221.000
833.277	228.221
833.405	230.212
833.533	221.692
833.662	223.971
833.790	220.606
833.918	230.385
834.046	220.163
834.174	222.510
834.302	227.221
834.430	219.731
834.558	221.721
834.687	228.183
834.815	222.894
834.943	216.413
835.071	224.808
835.199	226.173
835.327	218.308
835.455	230.125
835.583	215.490
835.712	222.654
835.840	222.692
835.968	215.740
836.096	228.808
836.224	216.587
836.352	219.279
836.480	211.923
836.608	213.558
836.737	218.135
836.865	211.385
836.993	221.231
837.121	223.635
837.249	221.250
837.377	211.962
837.505	207.019
837.633	215.798
837.762	216.788
837.890	213.337
838.018	211.712
838.146	209.702
838.274	211.433
838.402	209.692
838.530	224.087
838.658	215.846
838.787	220.298
838.915	211.144
839.043	221.125
839.171	207.183
839.299	218.558
839.427	233.048
839.555	217.971
839.683	208.038
839.812	211.221
839.940	205.913
840.068	208.058
840.196	236.635
840.324	228.721
840.452	215.567
840.580	205.510
840.708	200.433
840.837	211.510
840.965	205.212
841.093	203.337
841.221	207.365
841.349	205.337
841.477	201.538
841.605	200.885
841.733	205.769
841.862	211.885
841.990	205.577
842.118	201.856
842.246	201.212
842.374	196.212
842.502	214.125
842.630	201.837
842.758	198.231
842.887	212.885
843.015	220.202
843.143	198.298
843.271	201.471
843.399	204.413
843.527	207.212
843.655	198.394
843.783	201.644
843.912	204.173
844.040	197.337
844.168	203.115
844.296	210.702
844.424	207.154
844.552	204.606
844.680	203.587
844.808	198.644
844.937	197.375
845.065	197.798
845.193	212.712
845.321	199.115
845.449	205.606
845.577	200.913
845.705	197.490
845.833	196.587
845.962	208.135
846.090	199.750
846.218	208.135
846.346	204.760
846.474	197.250
846.602	193.019
846.730	200.577
846.858	196.433
846.987	192.817
847.115	201.433
847.243	202.135
847.371	188.346
847.499	194.346
847.627	197.231
847.755	193.221
847.883	205.952
848.012	204.346
848.140	187.817
848.268	193.567
848.396	193.962
848.524	208.260
848.652	191.625
848.780	189.192
848.908	197.644
849.037	194.106
849.165	188.663
849.293	197.750
849.421	197.048
849.549	196.221
849.677	191.596
849.805	199.692
849.933	188.625
850.062	193.731
850.190	193.548
850.318	187.904
850.446	192.635
850.574	190.721
850.702	190.577
850.830	186.058
850.958	188.375
851.087	193.519
851.215	185.837
851.343	188.096
851.471	189.885
851.599	197.413
851.727	200.692
851.855	193.125
851.983	197.913
852.112	184.635
852.240	194.144
852.368	201.154
852.496	187.067
852.624	191.865
852.752	199.596
852.880	197.606
853.008	191.865
853.137	190.240
853.265	193.019
853.393	185.865
853.521	185.087
853.649	193.490
853.777	188.510
853.905	184.683
854.033	184.250
854.162	182.529
854.290	183.798
854.418	201.548
854.546	214.740
854.674	203.154
854.802	187.769
854.930	180.183
855.058	192.337
855.187	181.231
855.315	214.462
855.443	186.173
855.571	183.798
855.699	195.019
855.827	178.731
855.955	183.404
856.083	184.510
856.212	183.548
856.340	189.308
856.468	188.048
856.596	185.163
856.724	189.740
856.852	200.827
856.980	180.096
857.108	176.942
857.237	177.317
857.365	191.856
857.493	186.962
857.621	181.452
857.749	181.423
857.877	180.240
858.005	177.894
858.133	178.644
858.262	179.269
858.390	181.029
858.518	178.952
858.646	185.894
858.774	173.442
858.902	179.625
859.030	179.923
859.158	184.154
859.287	181.173
859.415	180.442
859.543	179.058
859.671	182.269
859.799	190.721
859.927	177.202
860.055	176.981
860.183	174.144
860.312	176.596
860.440	179.904
860.568	169.433
860.696	186.029
860.824	192.231
860.952	174.346
861.080	181.077
861.208	183.029
861.337	178.144
861.465	188.212
861.593	178.433
861.721	184.567
861.849	184.779
861.977	179.413
862.105	180.288
862.233	173.827
862.362	175.308
862.490	173.673
862.618	176.433
862.746	176.010
862.874	180.048
863.002	180.337
863.130	181.962
863.258	182.135
863.387	181.962
863.515	178.308
863.643	183.683
863.771	181.663
863.899	179.654
864.027	178.769
864.155	203.125
864.283	177.346
864.412	173.077
864.540	179.385
864.668	169.212
864.796	173.750
864.924	175.712
865.052	169.221
865.180	191.077
865.308	176.106
865.437	175.990
865.565	171.385
865.693	171.212
865.821	169.875
865.949	193.913
866.077	176.577
866.205	170.154
866.333	178.260
866.462	168.442
866.590	178.067
866.718	178.837
866.846	170.731
866.974	173.106
867.102	170.913
867.230	177.635
867.358	171.433
867.487	180.702
867.615	185.163
867.743	170.308
867.871	181.269
867.999	175.625
868.127	184.000
868.255	187.048
868.383	167.596
868.512	175.365
868.640	175.894
868.768	170.827
868.896	182.625
869.024	171.163
869.152	173.221
869.280	169.529
869.408	168.577
869.537	165.962
869.665	169.019
869.793	173.173
869.921	174.663
870.049	162.558
870.177	170.913
870.305	166.894
870.433	170.106
870.562	176.769
870.690	169.356
870.818	177.481
870.946	167.317
871.074	165.587
871.202	169.933
871.330	164.692
871.458	175.510
871.587	170.702
871.715	170.856
871.843	172.087
871.971	177.048
872.099	160.317
872.227	170.269
872.355	169.413
872.483	167.096
872.612	173.615
872.740	172.115
872.868	170.577
872.996	170.173
873.124	177.115
873.252	170.471
873.380	163.010
873.508	178.077
873.637	175.760
873.765	164.981
873.893	166.327
874.021	168.692
874.149	166.808
874.277	170.519
874.405	173.337
874.533	175.125
874.662	167.135
874.790	171.038
874.918	166.500
875.046	171.875
875.174	166.567
875.302	165.212
875.430	165.202
875.558	171.067
875.687	174.779
875.815	170.144
875.943	174.135
876.071	171.500
876.199	173.481
876.327	173.212
876.455	172.173
876.583	163.529
876.712	175.365
876.840	167.596
876.968	168.615
877.096	170.731
877.224	169.481
877.352	161.269
877.480	171.288
877.608	179.000
877.737	170.154
877.865	162.587
877.993	169.404
878.121	171.885
878.249	167.510
878.377	166.942
878.505	171.663
878.633	171.740
878.762	163.827
878.890	167.288
879.018	174.260
879.146	166.462
879.274	192.317
879.402	167.740
879.530	164.683
879.658	170.577
879.787	173.654
879.915	163.192
880.043	164.365
880.171	199.913
880.299	170.654
880.427	170.019
880.555	163.519
880.683	168.798
880.812	169.375
880.940	164.846
881.068	172.923
881.196	166.683
881.324	160.423
881.452	160.808
881.580	169.837
881.708	173.990
881.837	169.481
881.965	168.731
882.093	159.183
882.221	163.837
882.349	161.837
882.477	166.798
882.605	167.067
882.733	174.510
882.862	165.058
882.990	176.788
883.118	172.529
883.246	172.692
883.374	167.519
883.502	172.875
883.630	173.462
883.758	162.269
883.887	169.317
884.015	167.721
884.143	170.125
884.271	167.625
884.399	161.202
884.527	168.654
884.655	163.615
884.783	169.519
884.912	187.452
885.040	170.346
885.168	160.500
885.296	173.894
885.424	165.702
885.552	164.221
885.680	181.019
885.808	169.510
885.937	172.452
886.065	172.923
886.193	168.981
886.321	164.038
886.449	166.125
886.577	160.346
886.705	177.808
886.833	159.115
886.962	167.760
887.090	167.413
887.218	162.942
887.346	161.356
887.474	163.067
887.602	161.548
887.730	157.769
887.858	161.260
887.987	159.837
888.115	169.990
888.243	163.356
888.371	178.154
888.499	164.308
888.627	159.952
888.755	170.558
888.883	166.269
889.012	164.538
889.140	162.712
889.268	170.087
889.396	156.548
889.524	171.298
889.652	157.019
889.780	161.308
889.908	165.846
890.037	171.337
890.165	163.096
890.293	165.875
890.421	167.394
890.549	156.779
890.677	158.115
890.805	167.885
890.933	163.913
891.062	164.606
891.190	168.731
891.318	164.038
891.446	162.615
891.574	156.010
891.702	163.269
891.830	165.587
891.958	175.327
892.087	172.000
892.215	166.423
892.343	167.990
892.471	168.173
892.599	162.346
892.727	167.837
892.855	182.837
892.983	155.788
893.112	160.644
893.240	175.077
893.368	163.144
893.496	171.385
893.624	169.346
893.752	188.885
893.880	172.135
894.008	164.808
894.137	165.510
894.265	170.567
894.393	161.385
894.521	171.385
894.649	163.644
894.777	158.596
894.905	199.942
895.033	162.337
895.162	163.712
895.290	169.288
895.418	167.394
895.546	195.904
895.674	170.615
895.802	204.654
895.930	168.144
896.058	160.260
896.187	165.058
896.315	160.577
896.443	171.298
896.571	187.510
896.699	161.385
896.827	162.750
896.955	163.490
897.083	167.452
897.212	166.702
897.340	160.952
897.468	164.827
897.596	162.548
897.724	162.721
897.852	159.029
897.980	157.038
898.108	169.558
898.237	164.010
898.365	162.000
898.493	167.548
898.621	161.096
898.749	163.644
898.877	163.481
899.005	162.644
899.133	166.519
899.262	175.394
899.390	163.587
899.518	167.788
899.646	159.635
899.774	156.298
899.902	161.548
900.030	173.308
900.158	164.423
900.287	164.827
900.415	159.048
900.543	164.260
900.671	168.413
900.799	163.423
900.927	159.010
901.055	174.529
901.183	170.433
901.312	173.317
901.440	160.837
901.568	162.250
901.696	163.394
901.824	160.462
901.952	158.375
902.080	167.625
902.208	166.356
902.337	170.923
902.465	160.038
902.593	176.192
902.721	186.413
902.849	182.087
902.977	167.808
903.105	165.452
903.233	169.058
903.362	159.721
903.490	174.644
903.618	164.923
903.746	157.356
903.874	165.481
904.002	162.404
904.130	175.635
904.258	158.298
904.387	171.058
904.515	160.019
904.643	169.365
904.771	159.404
904.899	165.923
905.027	167.442
905.155	163.769
905.283	156.433
905.412	178.654
905.540	164.894
905.668	163.606
905.796	168.356
905.924	163.356
906.052	167.154
906.180	167.462
906.308	162.346
906.437	159.827
906.565	169.529
906.693	174.365
906.821	161.567
906.949	165.990
907.077	160.115
907.205	172.279
907.333	159.288
907.462	161.529
907.590	164.269
907.718	162.221
907.846	169.731
907.974	160.048
908.102	167.077
908.230	167.913
908.358	163.808
908.487	157.413
908.615	175.740
908.743	170.788
908.871	166.192
908.999	162.798
909.127	165.462
909.255	174.308
909.383	160.933
909.512	158.365
909.640	173.981
909.768	164.452
909.896	170.827
910.024	171.500
910.152	172.798
910.280	172.212
910.408	161.606
910.537	162.846
910.665	169.846
910.793	167.952
910.921	173.308
911.049	172.375
911.177	174.519
911.305	167.587
911.433	187.250
911.562	169.654
911.690	169.837
911.818	167.750
911.946	166.577
912.074	173.212
912.202	164.471
912.330	185.077
912.458	160.798
912.587	170.567
912.715	167.337
912.843	182.212
912.971	172.087
913.099	185.462
913.227	175.500
913.355	172.865
913.483	178.548
913.612	179.394
913.740	199.433
913.868	172.567
