70_80_0_Pol_at_750.00nm_cut_at_1179.00Y_01.dat
03.07.2023
10:54:19
cut middle at Y: 1179.00
top cursor: 1231 down cursor: 1127 mean of: 104 lines , 2560 datapoints
wavelength(nm)	intensity[arb. units]
585.996	18170.192
586.124	17856.567
586.252	17900.029
586.380	17882.885
586.508	17956.087
586.637	18025.452
586.765	18033.192
586.893	18064.942
587.021	18069.058
587.149	18130.510
587.277	18123.692
587.405	18116.500
587.533	18158.769
587.662	18230.837
587.790	18185.788
587.918	18217.221
588.046	18180.385
588.174	18265.779
588.302	18230.500
588.430	18231.327
588.558	18221.683
588.687	18213.510
588.815	18275.058
588.943	18217.490
589.071	18248.442
589.199	18244.471
589.327	18219.644
589.455	18241.904
589.583	18258.087
589.712	18279.163
589.840	18216.692
589.968	18212.490
590.096	18253.856
590.224	18259.788
590.352	18318.788
590.480	18246.356
590.608	18205.510
590.737	18267.154
590.865	18302.269
590.993	18211.596
591.121	18275.144
591.249	18236.558
591.377	18279.712
591.505	18350.538
591.633	18245.615
591.762	18242.952
591.890	18282.221
592.018	18371.567
592.146	18330.144
592.274	18272.875
592.402	18265.250
592.530	18512.798
592.658	18392.538
592.787	18379.981
592.915	18401.462
593.043	18322.654
593.171	18458.202
593.299	18428.644
593.427	18404.433
593.555	18471.692
593.683	18435.548
593.812	18511.933
593.940	18569.971
594.068	18547.260
594.196	18568.192
594.324	18553.337
594.452	18797.885
594.580	18696.077
594.708	18726.356
594.837	18752.125
594.965	18845.240
595.093	18808.500
595.221	18946.923
595.349	18935.077
595.477	18922.394
595.605	19011.337
595.733	18993.462
595.862	19031.010
595.990	19054.058
596.118	19088.885
596.246	19190.000
596.374	19095.337
596.502	19143.346
596.630	19173.798
596.758	19163.962
596.887	19186.971
597.015	19257.163
597.143	19220.654
597.271	19217.404
597.399	19322.413
597.527	19287.990
597.655	19261.462
597.783	19294.212
597.912	19293.260
598.040	19262.712
598.168	19273.288
598.296	19234.702
598.424	19394.423
598.552	19202.471
598.680	19240.635
598.808	19303.692
598.937	19230.702
599.065	19215.231
599.193	19271.942
599.321	19268.317
599.449	19187.500
599.577	19202.788
599.705	19166.779
599.833	19166.731
599.962	19159.173
600.090	19204.106
600.218	19170.135
600.346	19169.115
600.474	19130.538
600.602	19155.865
600.730	19144.846
600.858	19183.933
600.987	19280.365
601.115	19156.933
601.243	19282.692
601.371	19290.125
601.499	19278.837
601.627	19325.010
601.755	19309.817
601.883	19336.913
602.012	19269.385
602.140	19336.894
602.268	19363.481
602.396	19512.558
602.524	19400.952
602.652	19598.288
602.780	19541.529
602.908	19599.856
603.037	19670.596
603.165	19711.077
603.293	19741.654
603.421	19776.269
603.549	19855.000
603.677	19860.635
603.805	19944.462
603.933	19962.548
604.062	20115.596
604.190	20144.779
604.318	20128.423
604.446	20211.029
604.574	20253.394
604.702	20282.000
604.830	20304.365
604.958	20322.490
605.087	20363.529
605.215	20496.279
605.343	20533.971
605.471	20553.327
605.599	20538.173
605.727	20671.221
605.855	20663.837
605.983	20707.558
606.112	20756.962
606.240	20766.106
606.368	20806.260
606.496	20762.904
606.624	20902.981
606.752	20830.471
606.880	20917.462
607.008	20890.933
607.137	20907.048
607.265	20977.500
607.393	20945.942
607.521	20978.654
607.649	20952.442
607.777	20903.587
607.905	20976.356
608.033	20940.067
608.162	20941.510
608.290	20918.019
608.418	21009.519
608.546	21001.231
608.674	21033.635
608.802	20937.510
608.930	20976.067
609.058	20913.731
609.187	20893.933
609.315	20889.183
609.443	20851.596
609.571	20973.058
609.699	20854.308
609.827	20908.135
609.955	20865.288
610.083	20831.010
610.212	20810.606
610.340	20748.837
610.468	20786.827
610.596	20791.875
610.724	20736.567
610.852	20833.288
610.980	20771.538
611.108	20743.558
611.237	20741.779
611.365	20730.192
611.493	20732.385
611.621	20711.375
611.749	20757.260
611.877	20846.510
612.005	20844.250
612.133	20833.010
612.262	20850.154
612.390	20877.010
612.518	20891.865
612.646	20919.740
612.774	20947.894
612.902	20949.962
613.030	21001.337
613.158	20960.423
613.287	21093.692
613.415	20988.433
613.543	21074.144
613.671	21068.731
613.799	21134.808
613.927	21136.096
614.055	21157.356
614.183	21188.442
614.312	21217.990
614.440	21365.856
614.568	21281.298
614.696	21338.885
614.824	21330.087
614.952	21378.337
615.080	21404.279
615.208	21480.317
615.337	21543.827
615.465	21483.731
615.593	21553.788
615.721	21531.683
615.849	21614.808
615.977	21608.163
616.105	21631.913
616.233	21659.135
616.362	21777.663
616.490	21748.067
616.618	21767.346
616.746	21915.721
616.874	21887.058
617.002	21922.740
617.130	21946.692
617.258	21916.240
617.387	21919.519
617.515	21956.529
617.643	21976.856
617.771	22031.558
617.899	22034.635
618.027	22024.029
618.155	22047.971
618.283	22036.808
618.412	22076.202
618.540	22164.375
618.668	22066.298
618.796	22131.904
618.924	22057.740
619.052	22102.846
619.180	22082.731
619.308	22040.048
619.437	22046.673
619.565	22134.317
619.693	22070.760
619.821	22118.125
619.949	22073.750
620.077	22086.731
620.205	22129.433
620.333	22083.240
620.462	22054.981
620.590	22097.490
620.718	22114.548
620.846	22128.962
620.974	22125.548
621.102	22150.606
621.230	22134.019
621.358	22220.288
621.487	22095.510
621.615	22117.933
621.743	22009.548
621.871	22053.144
621.999	22011.548
622.127	21994.779
622.255	21996.154
622.383	21965.135
622.512	21957.587
622.640	21973.356
622.768	21963.087
622.896	21993.971
623.024	21979.769
623.152	21906.077
623.280	21982.490
623.408	21916.038
623.537	21969.769
623.665	21900.683
623.793	21963.346
623.921	21929.885
624.049	21883.279
624.177	21881.096
624.305	21885.029
624.433	21878.490
624.562	21904.731
624.690	21973.077
624.818	21735.529
624.946	21804.375
625.074	21812.548
625.202	21740.471
625.330	21747.654
625.458	21837.077
625.587	21758.106
625.715	21796.173
625.843	21765.577
625.971	21796.760
626.099	21703.750
626.227	21744.625
626.355	21677.663
626.483	21759.587
626.612	21687.183
626.740	21767.308
626.868	21730.135
626.996	21735.337
627.124	21693.490
627.252	21707.202
627.380	21711.913
627.508	21685.212
627.637	21655.962
627.765	21798.115
627.893	21752.010
628.021	21784.288
628.149	21653.394
628.277	21780.442
628.405	21680.433
628.533	21657.644
628.662	21701.240
628.790	21793.413
628.918	21733.442
629.046	21851.385
629.174	21763.779
629.302	21733.346
629.430	21714.394
629.558	21768.808
629.687	21715.144
629.815	21759.144
629.943	21867.173
630.071	21798.692
630.199	21843.625
630.327	21844.115
630.455	21859.663
630.583	21875.846
630.712	21838.144
630.840	21885.029
630.968	21869.615
631.096	21874.250
631.224	21846.952
631.352	21979.567
631.480	21932.433
631.608	22096.260
631.737	21919.490
631.865	21998.365
631.993	21924.625
632.121	22065.788
632.249	21958.817
632.377	21909.788
632.505	21979.567
632.633	22012.962
632.762	21856.538
632.890	21905.692
633.018	21895.385
633.146	21846.952
633.274	21887.529
633.402	21862.308
633.530	21827.808
633.658	21815.760
633.787	21834.904
633.915	21763.962
634.043	21815.990
634.171	21769.692
634.299	21773.087
634.427	21701.269
634.555	21927.269
634.683	21677.413
634.812	21648.962
634.940	21532.798
635.068	21589.490
635.196	21551.529
635.324	21554.683
635.452	21466.250
635.580	21567.885
635.708	21405.817
635.837	21382.644
635.965	21382.298
636.093	21299.673
636.221	21309.433
636.349	21208.663
636.477	21194.375
636.605	21163.077
636.733	21112.990
636.862	21036.558
636.990	21041.788
637.118	20965.000
637.246	20905.712
637.374	21020.481
637.502	20867.865
637.630	20821.106
637.758	20741.808
637.887	20680.923
638.015	20793.471
638.143	20694.365
638.271	20573.019
638.399	20626.327
638.527	20512.538
638.655	20497.231
638.783	20446.125
638.912	20444.510
639.040	20394.144
639.168	20309.779
639.296	20270.298
639.424	20341.433
639.552	20308.837
639.680	20271.135
639.808	20197.654
639.937	20126.731
640.065	20158.923
640.193	20109.962
640.321	20223.375
640.449	20127.885
640.577	20059.673
640.705	20076.067
640.833	20035.971
640.962	20073.904
641.090	19962.192
641.218	19935.548
641.346	20021.500
641.474	19947.240
641.602	19940.240
641.730	19921.933
641.858	19906.904
641.987	19891.769
642.115	20055.490
642.243	19888.981
642.371	20027.404
642.499	19840.106
642.627	19887.548
642.755	19850.481
642.883	19829.067
643.012	19869.115
643.140	19876.269
643.268	19822.683
643.396	19737.644
643.524	19831.471
643.652	19812.894
643.780	19769.721
643.908	19772.760
644.037	19799.375
644.165	19828.394
644.293	19863.788
644.421	19672.058
644.549	19717.058
644.677	19718.567
644.805	19634.212
644.933	19611.298
645.062	19626.433
645.190	19729.462
645.318	19572.702
645.446	19531.952
645.574	19509.423
645.702	19498.394
645.830	19465.260
645.958	19411.221
646.087	19387.269
646.215	19377.769
646.343	19322.413
646.471	19492.481
646.599	19274.981
646.727	19281.231
646.855	19303.971
646.983	19210.558
647.112	19222.413
647.240	19140.163
647.368	19197.356
647.496	19109.538
647.624	19059.808
647.752	19030.260
647.880	18945.904
648.008	19004.356
648.137	18950.846
648.265	18874.740
648.393	18935.577
648.521	18791.192
648.649	18901.933
648.777	18792.798
648.905	18689.490
649.033	18734.971
649.162	18575.029
649.290	18485.000
649.418	18470.087
649.546	18619.856
649.674	18431.173
649.802	18364.913
649.930	18317.904
650.058	18272.740
650.187	18278.587
650.315	18190.923
650.443	18181.135
650.571	18086.183
650.699	18017.260
650.827	18056.192
650.955	17917.673
651.083	17962.279
651.212	17869.462
651.340	17855.442
651.468	17762.433
651.596	17751.240
651.724	17741.769
651.852	17634.702
651.980	17626.798
652.108	17545.077
652.237	17546.337
652.365	17460.490
652.493	17427.548
652.621	17398.827
652.749	17387.529
652.877	17327.654
653.005	17321.721
653.133	17231.644
653.262	17192.596
653.390	17115.865
653.518	17222.510
653.646	17021.683
653.774	17009.683
653.902	17051.154
654.030	16956.413
654.158	16863.962
654.287	16863.990
654.415	16803.202
654.543	16827.048
654.671	16737.644
654.799	16697.250
654.927	16618.827
655.055	16587.308
655.183	16565.385
655.312	16560.856
655.440	16444.625
655.568	16434.212
655.696	16458.000
655.824	16385.644
655.952	16336.490
656.080	16231.173
656.208	16242.442
656.337	16248.298
656.465	16374.010
656.593	16140.038
656.721	16181.654
656.849	16171.173
656.977	15935.721
657.105	15955.788
657.233	15923.433
657.362	15996.317
657.490	15901.346
657.618	15875.115
657.746	15815.260
657.874	15706.673
658.002	15660.990
658.130	15570.644
658.258	15544.240
658.387	15479.683
658.515	15438.087
658.643	15441.010
658.771	15430.385
658.899	15306.721
659.027	15321.000
659.155	15243.048
659.283	15222.567
659.412	15193.288
659.540	15127.529
659.668	15140.606
659.796	15165.962
659.924	15100.875
660.052	15148.750
660.180	15094.788
660.308	15063.356
660.437	15048.279
660.565	14998.144
660.693	14839.462
660.821	15020.798
660.949	14753.692
661.077	14805.490
661.205	14911.019
661.333	14712.673
661.462	14684.423
661.590	14785.183
661.718	14612.471
661.846	14622.567
661.974	14567.346
662.102	14512.712
662.230	14506.567
662.358	14405.452
662.487	14414.894
662.615	14381.808
662.743	14360.096
662.871	14335.183
662.999	14248.317
663.127	14221.692
663.255	14188.538
663.383	14295.760
663.512	14107.279
663.640	14122.952
663.768	14149.442
663.896	14032.779
664.024	14025.096
664.152	13996.058
664.280	14004.971
664.408	13911.423
664.537	13872.990
664.665	13878.702
664.793	13836.808
664.921	13799.260
665.049	13835.279
665.177	13729.394
665.305	13729.596
665.433	13731.856
665.562	13823.702
665.690	13688.260
665.818	13781.663
665.946	13580.221
666.074	13526.250
666.202	13491.173
666.330	13459.731
666.458	13811.731
666.587	13404.490
666.715	13362.010
666.843	13298.471
666.971	13317.067
667.099	13284.663
667.227	13333.683
667.355	13291.654
667.483	13192.692
667.612	13229.740
667.740	13140.952
667.868	13090.279
667.996	13078.615
668.124	13090.971
668.252	13128.760
668.380	13003.096
668.508	13021.010
668.637	12899.202
668.765	12906.173
668.893	12858.163
669.021	12786.067
669.149	12818.644
669.277	12732.567
669.405	12790.000
669.533	12765.846
669.662	12676.269
669.790	12615.413
669.918	12615.106
670.046	12711.317
670.174	12497.096
670.302	12424.019
670.430	12392.702
670.558	12421.490
670.687	12534.769
670.815	12293.404
670.943	12318.000
671.071	12225.192
671.199	12175.856
671.327	12155.058
671.455	12190.288
671.583	12067.481
671.712	12057.740
671.840	12072.990
671.968	12158.221
672.096	12092.288
672.224	11860.740
672.352	11856.760
672.480	11782.337
672.608	11767.510
672.737	11724.317
672.865	11633.904
672.993	11617.135
673.121	11572.577
673.249	11543.615
673.377	11484.442
673.505	11401.279
673.633	11459.337
673.762	11368.173
673.890	11364.269
674.018	11342.183
674.146	11272.817
674.274	11225.596
674.402	11260.625
674.530	11201.962
674.658	11102.644
674.787	11065.298
674.915	11141.587
675.043	11006.337
675.171	10964.087
675.299	10887.135
675.427	10853.971
675.555	10794.375
675.683	10838.298
675.812	10751.067
675.940	10705.933
676.068	10614.885
676.196	10680.058
676.324	10563.875
676.452	10516.923
676.580	10464.769
676.708	10464.462
676.837	10427.750
676.965	10477.913
677.093	10512.913
677.221	10346.885
677.349	10254.971
677.477	10323.163
677.605	10171.933
677.733	10186.173
677.862	10154.173
677.990	10086.048
678.118	10150.385
678.246	10057.462
678.374	10070.933
678.502	9972.356
678.630	9928.077
678.758	9923.519
678.887	10033.942
679.015	9765.644
679.143	9755.548
679.271	9748.240
679.399	9715.375
679.527	9716.038
679.655	9736.029
679.783	9619.394
679.912	9582.163
680.040	9737.481
680.168	9537.702
680.296	9524.106
680.424	9511.913
680.552	9428.817
680.680	9395.183
680.808	9374.750
680.937	9318.538
681.065	9385.115
681.193	9266.423
681.321	9218.913
681.449	9278.375
681.577	9223.933
681.705	9175.481
681.833	9174.923
681.962	9116.933
682.090	9073.125
682.218	9080.885
682.346	9081.375
682.474	8981.154
682.602	8971.865
682.730	8995.779
682.858	8901.404
682.987	8890.615
683.115	8916.635
683.243	8871.269
683.371	8834.231
683.499	8786.010
683.627	8819.240
683.755	8767.442
683.883	8741.173
684.012	8727.846
684.140	8662.923
684.268	8676.885
684.396	8730.865
684.524	8606.096
684.652	8650.029
684.780	8637.365
684.908	8582.356
685.037	8570.096
685.165	8542.779
685.293	8559.962
685.421	8498.538
685.549	8474.712
685.677	8418.106
685.805	8503.038
685.933	8402.346
686.062	8403.288
686.190	8342.558
686.318	8347.231
686.446	8270.558
686.574	8251.404
686.702	8311.413
686.830	8214.077
686.958	8281.154
687.087	8143.567
687.215	8161.500
687.343	8142.317
687.471	8289.067
687.599	8066.000
687.727	8038.279
687.855	8007.885
687.983	7962.779
688.112	7990.375
688.240	7962.115
688.368	7943.913
688.496	7917.606
688.624	7851.567
688.752	8012.183
688.880	7856.163
689.008	7802.260
689.137	7796.125
689.265	7732.712
689.393	7712.885
689.521	7713.394
689.649	7814.163
689.777	7693.721
689.905	7735.288
690.033	7576.096
690.162	7588.279
690.290	7625.423
690.418	7520.635
690.546	7554.740
690.674	7529.212
690.802	7536.558
690.930	7475.606
691.058	7468.846
691.187	7393.433
691.315	7360.481
691.443	7338.721
691.571	7348.760
691.699	7278.125
691.827	7260.971
691.955	7244.067
692.083	7182.990
692.212	7212.365
692.340	7172.529
692.468	7171.327
692.596	7143.240
692.724	7088.202
692.852	7129.510
692.980	7113.317
693.108	7093.077
693.237	6965.577
693.365	6979.731
693.493	6950.096
693.621	6922.510
693.749	6881.452
693.877	6907.529
694.005	6809.212
694.133	6820.327
694.262	6872.413
694.390	6722.106
694.518	6749.385
694.646	6719.221
694.774	6641.885
694.902	6623.837
695.030	6630.596
695.158	6588.923
695.287	6582.260
695.415	6564.663
695.543	6530.471
695.671	6470.663
695.799	6577.163
695.927	6471.673
696.055	6470.173
696.183	6384.413
696.312	6533.279
696.440	6385.106
696.568	6379.471
696.696	6277.394
696.824	6219.000
696.952	6224.154
697.080	6200.365
697.208	6135.808
697.337	6146.817
697.465	6127.981
697.593	6062.029
697.721	6171.971
697.849	6030.673
697.977	6085.462
698.105	6082.731
698.233	6000.510
698.362	5926.683
698.490	6034.865
698.618	5880.327
698.746	5853.067
698.874	5922.548
699.002	5872.548
699.130	5872.923
699.258	5781.673
699.387	5718.404
699.515	5768.442
699.643	5749.942
699.771	5810.885
699.899	5684.817
700.027	5618.673
700.155	5679.712
700.283	5553.183
700.412	5573.894
700.540	5561.404
700.668	5634.058
700.796	5479.298
700.924	5517.615
701.052	5516.837
701.180	5500.663
701.308	5405.404
701.437	5370.125
701.565	5368.471
701.693	5374.394
701.821	5541.221
701.949	5274.942
702.077	5279.596
702.205	5321.606
702.333	5245.154
702.462	5194.644
702.590	5248.058
702.718	5138.606
702.846	5302.308
702.974	5106.240
703.102	5101.808
703.230	5102.125
703.358	5009.010
703.487	5013.298
703.615	4989.558
703.743	4967.962
703.871	4957.779
703.999	4936.712
704.127	4913.269
704.255	4864.962
704.383	4883.442
704.512	4918.779
704.640	4876.481
704.768	4919.981
704.896	4781.029
705.024	4734.625
705.152	4735.048
705.280	4764.769
705.408	4668.558
705.537	4651.808
705.665	4660.154
705.793	4619.692
705.921	4606.548
706.049	4553.471
706.177	4588.067
706.305	4524.308
706.433	4565.221
706.562	4509.462
706.690	4501.567
706.818	4489.125
706.946	4430.106
707.074	4402.663
707.202	4361.894
707.330	4352.413
707.458	4329.885
707.587	4304.490
707.715	4312.019
707.843	4342.644
707.971	4315.567
708.099	4217.250
708.227	4209.942
708.355	4198.202
708.483	4169.442
708.612	4160.885
708.740	4140.635
708.868	4099.577
708.996	4191.058
709.124	4150.067
709.252	4099.625
709.380	4104.875
709.508	4029.154
709.637	4080.846
709.765	4056.760
709.893	4061.442
710.021	3969.433
710.149	4059.125
710.277	3942.529
710.405	3963.635
710.533	3934.192
710.662	3894.740
710.790	4023.587
710.918	3858.942
711.046	3903.154
711.174	3838.452
711.302	3860.308
711.430	3836.087
711.558	3859.894
711.687	3818.279
711.815	3790.731
711.943	3759.413
712.071	3746.519
712.199	3770.673
712.327	3816.923
712.455	3709.423
712.583	3857.740
712.712	3706.654
712.840	3747.010
712.968	3678.990
713.096	3668.490
713.224	3636.798
713.352	3613.423
713.480	3564.260
713.608	3557.952
713.737	3538.490
713.865	3593.106
713.993	3546.894
714.121	3550.144
714.249	3515.413
714.377	3500.279
714.505	3487.683
714.633	3481.413
714.762	3449.385
714.890	3451.096
715.018	3426.769
715.146	3467.058
715.274	3411.885
715.402	3395.288
715.530	3371.308
715.658	3414.173
715.787	3377.269
715.915	3416.942
716.043	3343.981
716.171	3431.692
716.299	3283.538
716.427	3340.894
716.555	3264.452
716.683	3251.837
716.812	3252.288
716.940	3238.462
717.068	3212.606
717.196	3348.808
717.324	3209.433
717.452	3180.154
717.580	3244.442
717.708	3152.385
717.837	3144.654
717.965	3173.231
718.093	3127.567
718.221	3132.106
718.349	3159.202
718.477	3086.904
718.605	3150.260
718.733	3085.154
718.862	3107.587
718.990	3024.135
719.118	3099.115
719.246	3017.000
719.374	3000.683
719.502	3031.904
719.630	3099.798
719.758	2947.038
719.887	2928.183
720.015	2975.519
720.143	2998.952
720.271	2916.567
720.399	2956.558
720.527	2887.481
720.655	2978.663
720.783	2886.587
720.912	2829.548
721.040	2853.260
721.168	2882.750
721.296	2823.500
721.424	2832.769
721.552	2802.779
721.680	2846.971
721.808	2819.269
721.937	2783.529
722.065	2810.365
722.193	2744.798
722.321	2770.827
722.449	2751.019
722.577	2700.606
722.705	2705.779
722.833	2723.192
722.962	2705.471
723.090	2665.692
723.218	2664.087
723.346	2690.702
723.474	2622.606
723.602	2610.635
723.730	2608.442
723.858	2590.279
723.987	2606.712
724.115	2592.231
724.243	2604.538
724.371	2542.596
724.499	2536.183
724.627	2518.231
724.755	2524.510
724.883	2578.481
725.012	2610.558
725.140	2495.596
725.268	2478.077
725.396	2477.144
725.524	2531.452
725.652	2422.808
725.780	2489.135
725.908	2406.212
726.037	2395.433
726.165	2406.250
726.293	2370.125
726.421	2375.625
726.549	2381.192
726.677	2362.192
726.805	2335.740
726.933	2357.288
727.062	2330.962
727.190	2322.452
727.318	2304.173
727.446	2314.875
727.574	2283.327
727.702	2279.596
727.830	2295.712
727.958	2284.663
728.087	2301.394
728.215	2300.990
728.343	2254.596
728.471	2239.952
728.599	2281.510
728.727	2227.279
728.855	2226.971
728.983	2210.962
729.112	2199.644
729.240	2188.135
729.368	2179.510
729.496	2171.048
729.624	2164.365
729.752	2165.625
729.880	2154.673
730.008	2141.750
730.137	2141.490
730.265	2120.125
730.393	2131.567
730.521	2107.327
730.649	2091.885
730.777	2087.115
730.905	2082.096
731.033	2059.875
731.162	2060.615
731.290	2064.212
731.418	2053.346
731.546	2061.135
731.674	2036.519
731.802	2031.269
731.930	2043.548
732.058	1995.135
732.187	1999.327
732.315	2001.702
732.443	2002.885
732.571	2002.442
732.699	1974.462
732.827	1991.933
732.955	1988.154
733.083	1964.375
733.212	1963.971
733.340	1970.442
733.468	1941.240
733.596	1917.923
733.724	1921.154
733.852	1910.760
733.980	1886.077
734.108	1912.952
734.237	1902.019
734.365	1898.087
734.493	1864.202
734.621	1876.587
734.749	1877.827
734.877	1848.365
735.005	1841.567
735.133	1857.173
735.262	1838.125
735.390	1812.087
735.518	1834.952
735.646	1813.558
735.774	1814.548
735.902	1801.163
736.030	1791.048
736.158	1799.471
736.287	1801.048
736.415	1790.154
736.543	1760.538
736.671	1767.183
736.799	1758.798
736.927	1775.952
737.055	1754.356
737.183	1734.452
737.312	1722.904
737.440	1722.067
737.568	1712.865
737.696	1716.183
737.824	1713.519
737.952	1925.625
738.080	1677.827
738.208	1693.308
738.337	1678.144
738.465	1676.394
738.593	1671.490
738.721	1645.538
738.849	1658.106
738.977	1642.365
739.105	1654.788
739.233	1640.106
739.362	1616.538
739.490	1606.163
739.618	1617.192
739.746	1606.865
739.874	1601.587
740.002	1596.019
740.130	1551.673
740.258	1577.577
740.387	1587.606
740.515	1579.567
740.643	1543.423
740.771	1561.808
740.899	1545.683
741.027	1543.500
741.155	1540.375
741.283	1531.885
741.412	1542.692
741.540	1514.894
741.668	1513.702
741.796	1510.173
741.924	1502.000
742.052	1489.798
742.180	1496.740
742.308	1475.798
742.437	1457.510
742.565	1473.077
742.693	1469.125
742.821	1472.154
742.949	1445.010
743.077	1443.298
743.205	1432.067
743.333	1434.317
743.462	1427.615
743.590	1416.298
743.718	1413.462
743.846	1407.740
743.974	1439.337
744.102	1412.058
744.230	1402.663
744.358	1402.712
744.487	1382.125
744.615	1362.712
744.743	1365.317
744.871	1367.269
744.999	1372.913
745.127	1366.885
745.255	1340.913
745.383	1343.269
745.512	1337.077
745.640	1327.933
745.768	1321.788
745.896	1331.846
746.024	1310.481
746.152	1315.663
746.280	1302.308
746.408	1307.067
746.537	1289.683
746.665	1301.731
746.793	1278.750
746.921	1271.087
747.049	1285.317
747.177	1272.337
747.305	1282.702
747.433	1270.000
747.562	1262.692
747.690	1259.856
747.818	1237.087
747.946	1237.029
748.074	1236.048
748.202	1229.442
748.330	1221.856
748.458	1213.125
748.587	1223.865
748.715	1216.212
748.843	1198.096
748.971	1202.712
749.099	1207.433
749.227	1198.808
749.355	1207.308
749.483	1173.404
749.612	1196.933
749.740	1184.548
749.868	1171.740
749.996	1171.202
750.124	1181.413
750.252	1151.798
750.380	1150.288
750.508	1161.087
750.637	1141.115
750.765	1148.337
750.893	1136.490
751.021	1136.750
751.149	1126.885
751.277	1124.375
751.405	1110.846
751.533	1138.096
751.662	1111.385
751.790	1106.788
751.918	1097.442
752.046	1096.740
752.174	1087.606
752.302	1072.077
752.430	1069.817
752.558	1071.077
752.687	1081.567
752.815	1060.346
752.943	1063.654
753.071	1059.067
753.199	1068.596
753.327	1075.750
753.455	1037.327
753.583	1027.519
753.712	1022.096
753.840	1036.981
753.968	1024.923
754.096	1035.288
754.224	1033.548
754.352	1005.990
754.480	1026.673
754.608	1017.452
754.737	1009.337
754.865	1005.462
754.993	1008.481
755.121	1001.038
755.249	971.981
755.377	961.817
755.505	970.596
755.633	972.394
755.762	968.596
755.890	982.490
756.018	963.692
756.146	951.029
756.274	941.683
756.402	949.317
756.530	969.952
756.658	947.375
756.787	929.298
756.915	919.385
757.043	915.375
757.171	911.779
757.299	930.952
757.427	900.000
757.555	900.500
757.683	902.827
757.812	911.452
757.940	893.192
758.068	891.596
758.196	892.663
758.324	888.029
758.452	888.558
758.580	881.067
758.708	874.760
758.837	892.519
758.965	885.548
759.093	872.567
759.221	857.865
759.349	848.231
759.477	850.077
759.605	842.471
759.733	849.135
759.862	835.317
759.990	843.404
760.118	836.654
760.246	839.298
760.374	837.144
760.502	830.298
760.630	818.308
760.758	813.173
760.887	818.894
761.015	798.683
761.143	816.192
761.271	803.221
761.399	798.106
761.527	813.442
761.655	807.885
761.783	775.856
761.912	790.019
762.040	797.635
762.168	770.962
762.296	766.144
762.424	780.019
762.552	782.375
762.680	753.990
762.808	784.702
762.937	774.558
763.065	753.202
763.193	743.644
763.321	742.615
763.449	739.827
763.577	728.135
763.705	756.962
763.833	739.385
763.962	723.442
764.090	727.673
764.218	729.471
764.346	722.288
764.474	717.490
764.602	717.038
764.730	716.663
764.858	723.010
764.987	715.048
765.115	706.625
765.243	695.490
765.371	696.500
765.499	702.750
765.627	695.981
765.755	693.385
765.883	694.010
766.012	688.740
766.140	677.192
766.268	678.837
766.396	684.173
766.524	684.933
766.652	667.731
766.780	673.577
766.908	673.971
767.037	678.798
767.165	663.067
767.293	663.413
767.421	658.106
767.549	652.923
767.677	668.942
767.805	653.067
767.933	657.125
768.062	641.538
768.190	637.644
768.318	643.423
768.446	633.740
768.574	633.587
768.702	635.606
768.830	633.433
768.958	616.538
769.087	636.298
769.215	627.010
769.343	620.115
769.471	635.750
769.599	620.625
769.727	616.308
769.855	605.010
769.983	639.433
770.112	609.913
770.240	599.615
770.368	600.510
770.496	597.596
770.624	595.788
770.752	591.490
770.880	599.106
771.008	583.231
771.137	579.346
771.265	577.606
771.393	569.923
771.521	576.163
771.649	594.875
771.777	611.702
771.905	625.231
772.033	603.192
772.162	561.183
772.290	574.644
772.418	573.375
772.546	556.837
772.674	566.260
772.802	553.452
772.930	562.394
773.058	558.298
773.187	548.548
773.315	548.587
773.443	550.298
773.571	545.394
773.699	542.019
773.827	541.404
773.955	559.192
774.083	544.500
774.212	534.981
774.340	538.817
774.468	528.442
774.596	534.971
774.724	537.510
774.852	535.337
774.980	526.038
775.108	519.250
775.237	521.048
775.365	515.606
775.493	529.731
775.621	514.885
775.749	523.808
775.877	523.500
776.005	517.471
776.133	510.019
776.262	508.702
776.390	511.558
776.518	499.923
776.646	508.192
776.774	503.606
776.902	494.029
777.030	491.038
777.158	497.269
777.287	503.308
777.415	488.644
777.543	496.577
777.671	488.702
777.799	490.933
777.927	480.183
778.055	486.500
778.183	475.692
778.312	477.442
778.440	481.519
778.568	499.721
778.696	489.212
778.824	483.942
778.952	485.240
779.080	476.769
779.208	475.990
779.337	474.106
779.465	479.827
779.593	468.385
779.721	472.048
779.849	468.375
779.977	466.154
780.105	463.606
780.233	469.788
780.362	463.798
780.490	452.913
780.618	463.231
780.746	450.337
780.874	454.240
781.002	459.673
781.130	456.452
781.258	451.317
781.387	456.471
781.515	452.962
781.643	437.519
781.771	441.865
781.899	452.163
782.027	439.490
782.155	444.683
782.283	438.144
782.412	443.913
782.540	445.510
782.668	437.663
782.796	434.798
782.924	444.683
783.052	437.154
783.180	427.837
783.308	435.250
783.437	424.471
783.565	441.019
783.693	432.279
783.821	432.865
783.949	424.144
784.077	419.423
784.205	423.298
784.333	418.385
784.462	421.885
784.590	417.288
784.718	407.538
784.846	419.202
784.974	432.346
785.102	411.548
785.230	412.962
785.358	412.346
785.487	406.231
785.615	398.529
785.743	407.692
785.871	412.654
785.999	416.875
786.127	412.183
786.255	397.500
786.383	398.327
786.512	396.317
786.640	400.625
786.768	388.317
786.896	394.019
787.024	389.894
787.152	390.423
787.280	408.519
787.408	387.173
787.537	396.087
787.665	399.808
787.793	383.269
787.921	387.692
788.049	384.731
788.177	386.510
788.305	383.567
788.433	384.298
788.562	380.106
788.690	379.365
788.818	382.019
788.946	373.452
789.074	371.000
789.202	369.423
789.330	370.904
789.458	379.058
789.587	373.317
789.715	373.635
789.843	370.404
789.971	370.288
790.099	366.279
790.227	361.279
790.355	365.827
790.483	365.587
790.612	366.231
790.740	372.029
790.868	359.010
790.996	375.596
791.124	375.615
791.252	366.933
791.380	349.635
791.508	356.683
791.637	359.077
791.765	348.846
791.893	355.971
792.021	360.558
792.149	346.337
792.277	356.615
792.405	343.769
792.533	355.106
792.662	347.952
792.790	351.144
792.918	358.865
793.046	345.788
793.174	341.865
793.302	346.038
793.430	340.038
793.558	355.894
793.687	340.077
793.815	341.346
793.943	353.308
794.071	338.135
794.199	338.000
794.327	342.808
794.455	342.894
794.583	341.308
794.712	336.317
794.840	332.365
794.968	335.981
795.096	345.577
795.224	326.769
795.352	367.654
795.480	322.663
795.608	325.615
795.737	324.567
795.865	323.346
795.993	331.577
796.121	327.519
796.249	320.808
796.377	325.933
796.505	321.808
796.633	327.875
796.762	320.115
796.890	314.250
797.018	317.135
797.146	324.279
797.274	323.808
797.402	313.173
797.530	310.192
797.658	314.106
797.787	328.596
797.915	318.192
798.043	307.971
798.171	312.423
798.299	302.019
798.427	316.952
798.555	325.933
798.683	306.721
798.812	338.692
798.940	354.952
799.068	338.135
799.196	312.048
799.324	312.471
799.452	298.981
799.580	304.125
799.708	300.144
799.837	299.827
799.965	296.058
800.093	295.260
800.221	301.577
800.349	300.875
800.477	295.173
800.605	295.346
800.733	300.365
800.862	298.596
800.990	295.163
801.118	287.952
801.246	293.413
801.374	297.865
801.502	289.481
801.630	292.010
801.758	293.519
801.887	280.231
802.015	291.923
802.143	277.913
802.271	283.635
802.399	283.163
802.527	277.548
802.655	285.865
802.783	282.183
802.912	281.317
803.040	276.327
803.168	279.096
803.296	289.356
803.424	273.221
803.552	280.942
803.680	285.308
803.808	276.125
803.937	275.442
804.065	283.327
804.193	282.721
804.321	296.462
804.449	295.067
804.577	279.990
804.705	292.135
804.833	274.538
804.962	270.683
805.090	272.500
805.218	269.712
805.346	266.442
805.474	277.346
805.602	275.077
805.730	279.952
805.858	266.644
805.987	267.577
806.115	263.769
806.243	272.798
806.371	263.202
806.499	266.077
806.627	257.913
806.755	264.663
806.883	264.394
807.012	262.096
807.140	271.615
807.268	256.433
807.396	261.413
807.524	257.058
807.652	270.269
807.780	260.202
807.908	257.606
808.037	273.462
808.165	269.452
808.293	254.788
808.421	255.173
808.549	254.433
808.677	256.808
808.805	268.154
808.933	254.519
809.062	255.038
809.190	266.567
809.318	257.952
809.446	252.385
809.574	260.423
809.702	247.654
809.830	245.279
809.958	256.952
810.087	253.423
810.215	246.846
810.343	259.769
810.471	251.413
810.599	244.567
810.727	252.721
810.855	245.500
810.983	253.308
811.112	243.221
811.240	241.865
811.368	248.240
811.496	250.221
811.624	247.510
811.752	249.538
811.880	259.538
812.008	252.721
812.137	257.058
812.265	244.298
812.393	250.260
812.521	239.308
812.649	247.173
812.777	236.231
812.905	252.115
813.033	256.481
813.162	241.558
813.290	238.394
813.418	240.808
813.546	236.500
813.674	239.500
813.802	236.942
813.930	232.798
814.058	232.635
814.187	235.952
814.315	236.615
814.443	234.952
814.571	236.087
814.699	229.462
814.827	235.260
814.955	241.317
815.083	232.317
815.212	233.000
815.340	228.038
815.468	237.010
815.596	230.731
815.724	236.837
815.852	235.154
815.980	228.087
816.108	230.798
816.237	232.885
816.365	238.721
816.493	231.500
816.621	238.346
816.749	222.981
816.877	290.625
817.005	244.163
817.133	232.538
817.262	229.337
817.390	222.635
817.518	238.183
817.646	219.019
817.774	219.721
817.902	214.490
818.030	218.548
818.158	231.269
818.287	221.163
818.415	223.298
818.543	220.288
818.671	226.308
818.799	219.712
818.927	218.471
819.055	244.846
819.183	225.375
819.312	238.163
819.440	218.154
819.568	215.279
819.696	216.567
819.824	216.731
819.952	218.452
820.080	216.615
820.208	218.933
820.337	219.144
820.465	216.990
820.593	218.365
820.721	217.490
820.849	213.231
820.977	214.529
821.105	217.279
821.233	204.971
821.362	219.317
821.490	207.721
821.618	214.519
821.746	218.385
821.874	215.654
822.002	204.308
822.130	208.923
822.258	212.683
822.387	211.683
822.515	212.519
822.643	212.625
822.771	208.721
822.899	215.279
823.027	207.933
823.155	214.731
823.283	225.817
823.412	218.663
823.540	206.394
823.668	202.385
823.796	205.010
823.924	206.375
824.052	208.567
824.180	210.058
824.308	204.529
824.437	220.846
824.565	209.317
824.693	196.577
824.821	204.183
824.949	212.731
825.077	204.567
825.205	201.269
825.333	206.183
825.462	210.673
825.590	202.596
825.718	199.577
825.846	204.413
825.974	202.269
826.102	204.029
826.230	204.654
826.358	208.067
826.487	205.606
826.615	197.837
826.743	188.433
826.871	208.058
826.999	198.115
827.127	200.183
827.255	196.683
827.383	195.510
827.512	198.471
827.640	207.452
827.768	216.971
827.896	190.356
828.024	200.308
828.152	193.625
828.280	198.740
828.408	195.577
828.537	200.356
828.665	197.442
828.793	197.808
828.921	194.721
829.049	199.644
829.177	197.510
829.305	193.385
829.433	195.269
829.562	194.221
829.690	192.471
829.818	197.769
829.946	197.125
830.074	196.298
830.202	189.394
830.330	195.635
830.458	185.029
830.587	202.375
830.715	190.673
830.843	186.942
830.971	195.125
831.099	189.337
831.227	219.875
831.355	192.750
831.483	189.452
831.612	189.740
831.740	189.404
831.868	191.942
831.996	196.548
832.124	194.913
832.252	198.029
832.380	191.529
832.508	187.471
832.637	189.106
832.765	196.750
832.893	187.702
833.021	190.385
833.149	183.702
833.277	189.365
833.405	194.327
833.533	186.865
833.662	191.385
833.790	184.163
833.918	191.442
834.046	183.933
834.174	183.442
834.302	189.317
834.430	182.942
834.558	184.817
834.687	192.510
834.815	186.269
834.943	184.365
835.071	188.260
835.199	189.567
835.327	180.606
835.455	193.106
835.583	185.423
835.712	182.298
835.840	186.644
835.968	181.038
836.096	191.510
836.224	181.173
836.352	185.288
836.480	181.942
836.608	179.596
836.737	187.087
836.865	180.413
836.993	190.337
837.121	191.769
837.249	188.442
837.377	180.221
837.505	175.731
837.633	182.692
837.762	187.231
837.890	182.587
838.018	185.712
838.146	179.000
838.274	181.356
838.402	182.250
838.530	194.500
838.658	184.173
838.787	190.231
838.915	175.635
839.043	183.433
839.171	178.087
839.299	181.317
839.427	204.115
839.555	187.615
839.683	177.827
839.812	178.654
839.940	175.288
840.068	180.144
840.196	206.712
840.324	200.644
840.452	183.519
840.580	180.442
840.708	168.673
840.837	179.702
840.965	177.644
841.093	172.740
841.221	175.750
841.349	176.702
841.477	174.548
841.605	172.673
841.733	177.231
841.862	185.212
841.990	180.529
842.118	173.875
842.246	174.760
842.374	169.183
842.502	183.163
842.630	174.788
842.758	173.606
842.887	182.337
843.015	190.721
843.143	176.029
843.271	175.365
843.399	176.692
843.527	179.442
843.655	172.163
843.783	173.462
843.912	169.913
844.040	168.548
844.168	173.683
844.296	184.250
844.424	180.048
844.552	177.548
844.680	177.144
844.808	173.760
844.937	174.673
845.065	170.952
845.193	188.288
845.321	177.692
845.449	183.625
845.577	175.510
845.705	172.481
845.833	171.894
845.962	177.000
846.090	173.125
846.218	181.885
846.346	180.442
846.474	173.673
846.602	170.471
846.730	174.442
846.858	172.817
846.987	170.452
847.115	181.365
847.243	185.144
847.371	164.913
847.499	170.490
847.627	173.308
847.755	172.731
847.883	181.269
848.012	181.962
848.140	164.981
848.268	170.990
848.396	172.183
848.524	183.760
848.652	170.808
848.780	166.538
848.908	177.981
849.037	173.115
849.165	166.356
849.293	177.654
849.421	174.269
849.549	173.731
849.677	168.712
849.805	176.308
849.933	168.317
850.062	175.548
850.190	172.154
850.318	168.558
850.446	173.308
850.574	171.317
850.702	168.750
850.830	164.933
850.958	168.942
851.087	175.827
851.215	165.212
851.343	172.154
851.471	171.471
851.599	176.712
851.727	185.202
851.855	170.942
851.983	175.567
852.112	167.010
852.240	178.923
852.368	179.394
852.496	168.721
852.624	174.019
852.752	178.856
852.880	172.221
853.008	175.077
853.137	171.298
853.265	176.587
853.393	169.952
853.521	170.038
853.649	178.904
853.777	169.750
853.905	162.087
854.033	167.096
854.162	165.625
854.290	165.808
854.418	183.990
854.546	200.144
854.674	183.462
854.802	171.625
854.930	164.865
855.058	173.933
855.187	165.298
855.315	194.933
855.443	165.644
855.571	169.019
855.699	176.577
855.827	162.346
855.955	164.885
856.083	168.471
856.212	166.962
856.340	169.692
856.468	172.923
856.596	167.019
856.724	177.058
856.852	184.577
856.980	166.750
857.108	164.308
857.237	161.192
857.365	176.587
857.493	172.567
857.621	168.077
857.749	166.942
857.877	165.798
858.005	163.933
858.133	169.385
858.262	165.942
858.390	162.808
858.518	163.990
858.646	172.510
858.774	163.048
858.902	162.288
859.030	171.827
859.158	170.990
859.287	168.317
859.415	167.510
859.543	167.212
859.671	170.433
859.799	177.433
859.927	164.615
860.055	159.663
860.183	160.452
860.312	162.048
860.440	166.154
860.568	159.731
860.696	173.683
860.824	179.952
860.952	161.404
861.080	166.510
861.208	169.115
861.337	166.000
861.465	174.567
861.593	166.923
861.721	175.048
861.849	170.740
861.977	166.337
862.105	167.731
862.233	167.404
862.362	162.308
862.490	160.625
862.618	166.221
862.746	167.144
862.874	167.183
863.002	168.087
863.130	171.865
863.258	166.231
863.387	172.279
863.515	168.558
863.643	173.192
863.771	165.519
863.899	169.298
864.027	168.058
864.155	189.837
864.283	164.644
864.412	161.308
864.540	167.135
864.668	159.885
864.796	164.750
864.924	163.510
865.052	159.856
865.180	179.981
865.308	168.413
865.437	165.587
865.565	157.865
865.693	164.394
865.821	161.519
865.949	181.413
866.077	167.288
866.205	165.077
866.333	169.163
866.462	160.327
866.590	170.048
866.718	167.885
866.846	163.019
866.974	164.221
867.102	159.442
867.230	170.923
867.358	163.481
867.487	170.231
867.615	174.731
867.743	160.529
867.871	174.327
867.999	165.096
868.127	174.433
868.255	176.702
868.383	159.625
868.512	162.981
868.640	161.817
868.768	164.240
868.896	172.779
869.024	158.231
869.152	165.510
869.280	159.260
869.408	162.827
869.537	161.577
869.665	159.279
869.793	164.038
869.921	164.856
870.049	156.923
870.177	164.317
870.305	158.067
870.433	160.490
870.562	167.317
870.690	163.567
870.818	169.173
870.946	158.385
871.074	156.423
871.202	163.865
871.330	156.115
871.458	165.558
871.587	165.673
871.715	162.442
871.843	165.856
871.971	167.587
872.099	155.000
872.227	166.125
872.355	161.010
872.483	160.875
872.612	167.673
872.740	162.827
872.868	163.712
872.996	165.875
873.124	172.731
873.252	163.019
873.380	159.192
873.508	169.913
873.637	165.212
873.765	159.183
873.893	156.577
874.021	164.298
874.149	156.808
874.277	161.625
874.405	165.654
874.533	170.510
874.662	158.808
874.790	167.760
874.918	160.279
875.046	167.029
875.174	160.750
875.302	159.471
875.430	159.317
875.558	167.538
875.687	169.192
875.815	165.202
875.943	167.673
876.071	164.596
876.199	165.942
876.327	163.510
876.455	163.471
876.583	159.596
876.712	169.846
876.840	165.846
876.968	160.990
877.096	163.452
877.224	162.673
877.352	157.298
877.480	164.731
877.608	170.538
877.737	164.683
877.865	163.048
877.993	163.538
878.121	170.471
878.249	161.096
878.377	159.837
878.505	167.058
878.633	165.394
878.762	157.587
878.890	162.452
879.018	170.462
879.146	160.058
879.274	188.596
879.402	163.558
879.530	162.269
879.658	165.231
879.787	166.385
879.915	160.442
880.043	158.365
880.171	197.077
880.299	162.692
880.427	167.308
880.555	156.356
880.683	168.808
880.812	164.846
880.940	162.875
881.068	168.356
881.196	161.038
881.324	161.202
881.452	159.077
881.580	166.115
881.708	167.567
881.837	164.962
881.965	165.548
882.093	156.808
882.221	157.587
882.349	156.856
882.477	160.923
882.605	166.269
882.733	168.913
882.862	157.500
882.990	170.779
883.118	167.192
883.246	168.567
883.374	161.635
883.502	167.683
883.630	165.327
883.758	161.788
883.887	163.240
884.015	161.663
884.143	167.731
884.271	162.298
884.399	156.942
884.527	163.913
884.655	160.625
884.783	166.212
884.912	182.385
885.040	166.269
885.168	158.423
885.296	174.019
885.424	162.500
885.552	165.442
885.680	175.779
885.808	166.808
885.937	172.481
886.065	167.779
886.193	162.788
886.321	162.221
886.449	160.173
886.577	164.106
886.705	174.913
886.833	157.135
886.962	164.462
887.090	165.413
887.218	158.856
887.346	162.904
887.474	160.625
887.602	162.452
887.730	154.202
887.858	160.125
887.987	156.548
888.115	164.010
888.243	158.135
888.371	175.558
888.499	165.221
888.627	160.548
888.755	164.942
888.883	163.904
889.012	166.644
889.140	163.596
889.268	168.635
889.396	155.587
889.524	166.558
889.652	154.596
889.780	160.596
889.908	163.769
890.037	171.327
890.165	161.433
890.293	166.365
890.421	166.577
890.549	156.481
890.677	154.788
890.805	161.356
890.933	159.875
891.062	161.356
891.190	162.635
891.318	158.298
891.446	163.144
891.574	157.010
891.702	158.856
891.830	166.087
891.958	172.788
892.087	165.452
892.215	164.654
892.343	165.385
892.471	167.337
892.599	160.240
892.727	164.144
892.855	183.510
892.983	154.183
893.112	157.779
893.240	169.077
893.368	160.625
893.496	172.865
893.624	166.644
893.752	186.125
893.880	170.298
894.008	164.779
894.137	161.135
894.265	167.673
894.393	161.731
894.521	166.260
894.649	162.231
894.777	155.885
894.905	201.317
895.033	160.337
895.162	162.519
895.290	169.269
895.418	163.913
895.546	191.510
895.674	167.663
895.802	203.885
895.930	163.413
896.058	159.933
896.187	159.279
896.315	157.577
896.443	168.663
896.571	187.481
896.699	160.837
896.827	159.952
896.955	163.904
897.083	165.067
897.212	161.721
897.340	160.750
897.468	160.106
897.596	160.317
897.724	161.990
897.852	158.413
897.980	155.760
898.108	169.731
898.237	160.462
898.365	160.433
898.493	165.317
898.621	160.038
898.749	162.788
898.877	161.769
899.005	162.423
899.133	163.692
899.262	172.596
899.390	161.731
899.518	162.933
899.646	157.654
899.774	157.192
899.902	160.192
900.030	171.808
900.158	162.692
900.287	163.106
900.415	154.404
900.543	163.221
900.671	169.510
900.799	161.769
900.927	157.827
901.055	170.644
901.183	172.337
901.312	168.115
901.440	156.962
901.568	158.135
901.696	158.558
901.824	156.615
901.952	157.846
902.080	165.260
902.208	159.510
902.337	166.385
902.465	162.173
902.593	175.202
902.721	183.731
902.849	181.385
902.977	163.750
903.105	164.221
903.233	165.375
903.362	156.519
903.490	168.298
903.618	163.260
903.746	153.837
903.874	166.885
904.002	161.000
904.130	174.356
904.258	154.894
904.387	167.019
904.515	155.077
904.643	165.048
904.771	158.798
904.899	162.481
905.027	166.837
905.155	159.096
905.283	157.106
905.412	174.356
905.540	164.663
905.668	161.981
905.796	161.538
905.924	162.663
906.052	162.942
906.180	168.750
906.308	160.981
906.437	158.346
906.565	164.154
906.693	173.231
906.821	162.462
906.949	161.798
907.077	157.798
907.205	169.298
907.333	158.846
907.462	158.481
907.590	161.000
907.718	161.731
907.846	166.548
907.974	157.654
908.102	162.346
908.230	162.365
908.358	158.913
908.487	156.769
908.615	171.019
908.743	171.971
908.871	165.894
908.999	157.923
909.127	164.135
909.255	173.731
909.383	157.654
909.512	157.212
909.640	172.817
909.768	161.240
909.896	166.894
910.024	169.913
910.152	170.904
910.280	169.808
910.408	160.865
910.537	156.760
910.665	168.231
910.793	165.260
910.921	166.846
911.049	173.279
911.177	174.856
911.305	162.981
911.433	189.058
911.562	169.462
911.690	167.385
911.818	166.000
911.946	163.538
912.074	170.606
912.202	165.115
912.330	180.865
912.458	158.452
912.587	166.173
912.715	171.750
912.843	177.308
912.971	170.740
913.099	185.615
913.227	173.644
913.355	175.279
913.483	181.837
913.612	179.163
913.740	196.942
913.868	172.885
