sample2h_at_750.00nm_cut_at_1200.50Y_01.dat
19.06.2023
10:50:18
cut middle at Y: 1200.50
top cursor: 1249 down cursor: 1152 mean of: 97 lines , 2560 datapoints
wavelength(nm)	intensity[arb. units]
585.996	1197.041
586.124	1148.423
586.252	1151.639
586.380	1162.546
586.508	1151.845
586.637	1162.639
586.765	1154.742
586.893	1159.031
587.021	1154.979
587.149	1171.598
587.277	1165.351
587.405	1174.423
587.533	1161.103
587.662	1157.216
587.790	1174.897
587.918	1174.887
588.046	1172.062
588.174	1178.309
588.302	1177.278
588.430	1167.619
588.558	1182.309
588.687	1174.320
588.815	1183.392
588.943	1176.010
589.071	1182.165
589.199	1181.753
589.327	1190.443
589.455	1188.216
589.583	1197.031
589.712	1189.134
589.840	1183.505
589.968	1188.062
590.096	1198.072
590.224	1187.856
590.352	1199.897
590.480	1197.546
590.608	1200.000
590.737	1200.124
590.865	1197.948
590.993	1204.588
591.121	1205.794
591.249	1210.701
591.377	1208.340
591.505	1211.907
591.633	1207.773
591.762	1214.763
591.890	1220.155
592.018	1223.464
592.146	1211.196
592.274	1217.794
592.402	1210.959
592.530	1222.072
592.658	1224.103
592.787	1226.082
592.915	1221.701
593.043	1219.289
593.171	1208.433
593.299	1224.216
593.427	1219.186
593.555	1216.340
593.683	1229.082
593.812	1238.485
593.940	1232.680
594.068	1235.856
594.196	1234.629
594.324	1238.000
594.452	1239.474
594.580	1236.258
594.708	1246.495
594.837	1232.155
594.965	1243.959
595.093	1245.701
595.221	1251.443
595.349	1255.072
595.477	1256.320
595.605	1261.670
595.733	1250.835
595.862	1261.062
595.990	1252.351
596.118	1259.928
596.246	1252.629
596.374	1261.990
596.502	1262.670
596.630	1272.320
596.758	1269.340
596.887	1266.041
597.015	1269.124
597.143	1266.515
597.271	1267.433
597.399	1277.433
597.527	1265.082
597.655	1259.268
597.783	1256.227
597.912	1265.433
598.040	1271.773
598.168	1283.557
598.296	1259.969
598.424	1269.093
598.552	1258.443
598.680	1269.320
598.808	1265.495
598.937	1266.897
599.065	1270.814
599.193	1261.371
599.321	1259.392
599.449	1268.897
599.577	1267.979
599.705	1264.196
599.833	1276.856
599.962	1257.773
600.090	1263.258
600.218	1266.918
600.346	1267.814
600.474	1260.948
600.602	1270.773
600.730	1268.887
600.858	1269.278
600.987	1270.639
601.115	1275.237
601.243	1270.227
601.371	1279.959
601.499	1275.464
601.627	1273.289
601.755	1285.320
601.883	1286.876
602.012	1292.072
602.140	1281.794
602.268	1294.835
602.396	1293.258
602.524	1298.897
602.652	1297.412
602.780	1320.722
602.908	1309.577
603.037	1310.948
603.165	1307.794
603.293	1324.134
603.421	1306.330
603.549	1329.711
603.677	1332.041
603.805	1324.907
603.933	1341.371
604.062	1341.402
604.190	1342.897
604.318	1355.876
604.446	1342.216
604.574	1347.041
604.702	1355.670
604.830	1350.433
604.958	1357.031
605.087	1364.134
605.215	1361.876
605.343	1380.103
605.471	1365.021
605.599	1364.103
605.727	1369.134
605.855	1390.330
605.983	1378.454
606.112	1377.557
606.240	1389.866
606.368	1388.546
606.496	1380.443
606.624	1394.144
606.752	1382.330
606.880	1384.371
607.008	1385.887
607.137	1381.526
607.265	1390.113
607.393	1385.505
607.521	1380.784
607.649	1404.361
607.777	1384.299
607.905	1385.485
608.033	1399.557
608.162	1378.753
608.290	1381.588
608.418	1381.660
608.546	1374.474
608.674	1385.268
608.802	1389.691
608.930	1381.227
609.058	1399.485
609.187	1388.082
609.315	1375.907
609.443	1381.918
609.571	1389.423
609.699	1377.680
609.827	1393.340
609.955	1380.485
610.083	1372.165
610.212	1372.649
610.340	1384.629
610.468	1395.175
610.596	1379.103
610.724	1377.144
610.852	1378.639
610.980	1391.577
611.108	1393.711
611.237	1402.165
611.365	1371.392
611.493	1388.134
611.621	1373.753
611.749	1385.423
611.877	1395.866
612.005	1391.062
612.133	1396.536
612.262	1406.031
612.390	1390.402
612.518	1398.186
612.646	1393.918
612.774	1398.505
612.902	1389.196
613.030	1399.907
613.158	1406.268
613.287	1420.474
613.415	1411.299
613.543	1414.794
613.671	1417.804
613.799	1413.412
613.927	1423.918
614.055	1433.351
614.183	1423.423
614.312	1421.742
614.440	1417.495
614.568	1425.474
614.696	1422.649
614.824	1426.000
614.952	1426.485
615.080	1427.227
615.208	1435.392
615.337	1447.742
615.465	1416.588
615.593	1424.856
615.721	1438.794
615.849	1430.124
615.977	1444.175
616.105	1436.062
616.233	1448.196
616.362	1445.907
616.490	1455.464
616.618	1457.866
616.746	1455.536
616.874	1448.763
617.002	1453.505
617.130	1468.649
617.258	1446.907
617.387	1438.165
617.515	1454.577
617.643	1447.732
617.771	1466.412
617.899	1460.124
618.027	1447.330
618.155	1465.515
618.283	1454.948
618.412	1461.711
618.540	1452.753
618.668	1471.711
618.796	1455.093
618.924	1468.082
619.052	1469.361
619.180	1459.639
619.308	1473.784
619.437	1483.464
619.565	1461.536
619.693	1471.773
619.821	1481.186
619.949	1484.247
620.077	1474.814
620.205	1473.258
620.333	1474.351
620.462	1486.505
620.590	1479.845
620.718	1493.711
620.846	1476.959
620.974	1464.948
621.102	1480.454
621.230	1487.588
621.358	1476.887
621.487	1477.969
621.615	1476.794
621.743	1479.887
621.871	1471.608
621.999	1472.093
622.127	1480.206
622.255	1489.165
622.383	1485.320
622.512	1476.258
622.640	1478.103
622.768	1485.845
622.896	1465.567
623.024	1477.454
623.152	1480.072
623.280	1488.649
623.408	1470.804
623.537	1488.299
623.665	1487.237
623.793	1488.701
623.921	1472.763
624.049	1489.371
624.177	1479.299
624.305	1481.588
624.433	1493.113
624.562	1483.072
624.690	1488.021
624.818	1489.289
624.946	1492.196
625.074	1485.402
625.202	1486.588
625.330	1472.732
625.458	1495.186
625.587	1478.227
625.715	1490.918
625.843	1499.608
625.971	1480.948
626.099	1486.948
626.227	1496.660
626.355	1496.845
626.483	1475.897
626.612	1492.392
626.740	1496.227
626.868	1487.330
626.996	1487.278
627.124	1477.701
627.252	1491.959
627.380	1495.165
627.508	1483.990
627.637	1490.113
627.765	1487.299
627.893	1496.464
628.021	1484.082
628.149	1501.031
628.277	1508.660
628.405	1499.258
628.533	1494.814
628.662	1484.093
628.790	1493.979
628.918	1494.866
629.046	1484.763
629.174	1494.763
629.302	1498.340
629.430	1498.381
629.558	1507.206
629.687	1497.577
629.815	1497.701
629.943	1509.784
630.071	1508.062
630.199	1501.247
630.327	1522.062
630.455	1508.268
630.583	1507.464
630.712	1513.876
630.840	1527.629
630.968	1519.433
631.096	1521.206
631.224	1513.103
631.352	1521.536
631.480	1513.485
631.608	1524.093
631.737	1523.485
631.865	1520.546
631.993	1518.691
632.121	1529.361
632.249	1527.979
632.377	1533.505
632.505	1528.433
632.633	1531.814
632.762	1536.660
632.890	1532.701
633.018	1533.392
633.146	1525.670
633.274	1538.649
633.402	1529.010
633.530	1528.258
633.658	1540.794
633.787	1534.000
633.915	1532.247
634.043	1515.052
634.171	1534.351
634.299	1526.052
634.427	1515.134
634.555	1540.433
634.683	1532.753
634.812	1528.649
634.940	1534.206
635.068	1517.392
635.196	1534.031
635.324	1523.258
635.452	1524.887
635.580	1524.691
635.708	1522.485
635.837	1512.773
635.965	1509.959
636.093	1505.289
636.221	1503.216
636.349	1503.371
636.477	1503.340
636.605	1501.010
636.733	1499.278
636.862	1501.000
636.990	1496.392
637.118	1508.557
637.246	1508.784
637.374	1497.144
637.502	1496.000
637.630	1485.629
637.758	1478.876
637.887	1495.918
638.015	1491.454
638.143	1496.072
638.271	1481.505
638.399	1482.567
638.527	1475.619
638.655	1482.979
638.783	1478.464
638.912	1496.021
639.040	1484.134
639.168	1472.392
639.296	1473.082
639.424	1478.845
639.552	1473.247
639.680	1478.536
639.808	1477.041
639.937	1468.763
640.065	1469.309
640.193	1479.402
640.321	1481.938
640.449	1470.175
640.577	1477.289
640.705	1473.309
640.833	1468.588
640.962	1471.990
641.090	1474.021
641.218	1463.567
641.346	1458.268
641.474	1466.175
641.602	1471.928
641.730	1463.876
641.858	1473.515
641.987	1477.155
642.115	1474.825
642.243	1481.598
642.371	1483.856
642.499	1482.155
642.627	1477.897
642.755	1459.247
642.883	1478.289
643.012	1469.928
643.140	1484.773
643.268	1482.402
643.396	1472.722
643.524	1482.443
643.652	1484.381
643.780	1473.670
643.908	1475.835
644.037	1476.103
644.165	1477.784
644.293	1480.680
644.421	1479.381
644.549	1471.289
644.677	1489.639
644.805	1471.082
644.933	1467.289
645.062	1488.340
645.190	1480.330
645.318	1476.897
645.446	1476.588
645.574	1489.918
645.702	1472.216
645.830	1481.000
645.958	1481.268
646.087	1463.485
646.215	1485.577
646.343	1461.608
646.471	1490.454
646.599	1461.557
646.727	1465.155
646.855	1447.412
646.983	1467.588
647.112	1460.969
647.240	1484.113
647.368	1457.835
647.496	1439.969
647.624	1450.206
647.752	1466.381
647.880	1459.691
648.008	1464.784
648.137	1465.495
648.265	1444.876
648.393	1457.876
648.521	1453.258
648.649	1454.515
648.777	1444.557
648.905	1442.897
649.033	1449.495
649.162	1439.969
649.290	1425.402
649.418	1433.412
649.546	1440.753
649.674	1436.835
649.802	1438.959
649.930	1431.948
650.058	1424.474
650.187	1425.784
650.315	1414.742
650.443	1414.732
650.571	1417.082
650.699	1416.608
650.827	1420.443
650.955	1431.753
651.083	1419.804
651.212	1409.784
651.340	1418.876
651.468	1427.196
651.596	1412.887
651.724	1393.258
651.852	1395.979
651.980	1398.433
652.108	1401.629
652.237	1404.258
652.365	1383.216
652.493	1399.103
652.621	1383.804
652.749	1390.010
652.877	1393.144
653.005	1390.082
653.133	1375.247
653.262	1386.227
653.390	1379.247
653.518	1388.567
653.646	1377.639
653.774	1374.856
653.902	1382.165
654.030	1384.144
654.158	1370.670
654.287	1376.619
654.415	1353.928
654.543	1368.639
654.671	1362.299
654.799	1359.392
654.927	1355.103
655.055	1352.155
655.183	1352.165
655.312	1349.629
655.440	1347.804
655.568	1346.052
655.696	1348.175
655.824	1354.928
655.952	1338.000
656.080	1345.639
656.208	1342.959
656.337	1340.835
656.465	1338.423
656.593	1343.649
656.721	1333.887
656.849	1334.856
656.977	1335.041
657.105	1333.680
657.233	1322.216
657.362	1331.485
657.490	1326.526
657.618	1324.753
657.746	1324.567
657.874	1318.000
658.002	1314.608
658.130	1322.856
658.258	1315.464
658.387	1308.381
658.515	1304.485
658.643	1316.474
658.771	1318.701
658.899	1314.619
659.027	1300.186
659.155	1307.505
659.283	1299.103
659.412	1308.093
659.540	1299.206
659.668	1310.392
659.796	1287.557
659.924	1300.485
660.052	1307.918
660.180	1285.454
660.308	1286.722
660.437	1290.144
660.565	1292.340
660.693	1291.423
660.821	1291.557
660.949	1303.258
661.077	1288.670
661.205	1288.464
661.333	1290.216
661.462	1298.309
661.590	1277.021
661.718	1288.546
661.846	1278.619
661.974	1294.515
662.102	1271.000
662.230	1279.691
662.358	1276.433
662.487	1275.680
662.615	1278.856
662.743	1275.948
662.871	1281.402
662.999	1263.990
663.127	1271.948
663.255	1270.948
663.383	1273.928
663.512	1271.639
663.640	1266.536
663.768	1267.557
663.896	1268.474
664.024	1260.412
664.152	1256.299
664.280	1265.268
664.408	1248.113
664.537	1252.361
664.665	1262.887
664.793	1260.103
664.921	1251.289
665.049	1272.206
665.177	1255.536
665.305	1258.495
665.433	1248.722
665.562	1269.814
665.690	1252.526
665.818	1233.423
665.946	1254.856
666.074	1252.784
666.202	1247.278
666.330	1244.206
666.458	1335.351
666.587	1245.299
666.715	1259.773
666.843	1234.082
666.971	1232.619
667.099	1249.454
667.227	1240.495
667.355	1257.237
667.483	1245.536
667.612	1237.557
667.740	1244.567
667.868	1241.629
667.996	1240.423
668.124	1252.392
668.252	1237.938
668.380	1228.722
668.508	1237.165
668.637	1221.186
668.765	1232.722
668.893	1229.392
669.021	1231.268
669.149	1221.598
669.277	1219.237
669.405	1229.103
669.533	1221.639
669.662	1224.515
669.790	1224.309
669.918	1217.247
670.046	1215.041
670.174	1221.196
670.302	1201.835
670.430	1205.258
670.558	1208.505
670.687	1200.155
670.815	1209.351
670.943	1206.247
671.071	1191.794
671.199	1199.825
671.327	1190.608
671.455	1199.464
671.583	1201.062
671.712	1191.155
671.840	1181.567
671.968	1187.598
672.096	1177.546
672.224	1169.278
672.352	1175.433
672.480	1174.320
672.608	1168.227
672.737	1167.000
672.865	1178.732
672.993	1170.918
673.121	1167.371
673.249	1155.000
673.377	1157.330
673.505	1169.918
673.633	1161.814
673.762	1154.175
673.890	1155.866
674.018	1147.979
674.146	1154.041
674.274	1139.825
674.402	1138.773
674.530	1136.701
674.658	1141.155
674.787	1133.763
674.915	1132.608
675.043	1134.381
675.171	1131.526
675.299	1120.928
675.427	1130.742
675.555	1133.753
675.683	1111.619
675.812	1119.804
675.940	1108.691
676.068	1110.412
676.196	1117.526
676.324	1114.557
676.452	1106.732
676.580	1097.536
676.708	1109.052
676.837	1104.072
676.965	1102.907
677.093	1108.268
677.221	1096.464
677.349	1090.072
677.477	1090.144
677.605	1102.619
677.733	1087.732
677.862	1088.216
677.990	1076.392
678.118	1078.990
678.246	1072.392
678.374	1079.041
678.502	1084.433
678.630	1070.876
678.758	1077.165
678.887	1072.907
679.015	1068.433
679.143	1057.330
679.271	1063.495
679.399	1064.763
679.527	1061.010
679.655	1058.619
679.783	1059.526
679.912	1061.794
680.040	1053.361
680.168	1057.990
680.296	1053.309
680.424	1054.165
680.552	1049.619
680.680	1049.598
680.808	1040.186
680.937	1045.330
681.065	1040.454
681.193	1041.598
681.321	1036.062
681.449	1027.897
681.577	1038.351
681.705	1026.794
681.833	1031.835
681.962	1037.918
682.090	1038.948
682.218	1032.258
682.346	1025.227
682.474	1028.742
682.602	1020.887
682.730	1015.093
682.858	1020.402
682.987	1011.959
683.115	1011.402
683.243	1024.381
683.371	1017.577
683.499	1008.247
683.627	1003.598
683.755	1006.381
683.883	1010.546
684.012	1003.175
684.140	1016.701
684.268	1003.515
684.396	996.825
684.524	1009.381
684.652	1011.495
684.780	1003.258
684.908	1015.309
685.037	1011.268
685.165	991.680
685.293	1004.320
685.421	999.670
685.549	996.887
685.677	1004.670
685.805	999.814
685.933	1001.062
686.062	1002.402
686.190	997.402
686.318	1000.392
686.446	986.577
686.574	986.938
686.702	983.082
686.830	997.062
686.958	1006.433
687.087	1005.021
687.215	990.722
687.343	978.876
687.471	990.206
687.599	980.268
687.727	992.814
687.855	978.722
687.983	986.175
688.112	989.474
688.240	976.773
688.368	983.773
688.496	990.072
688.624	970.247
688.752	983.443
688.880	973.959
689.008	968.701
689.137	982.144
689.265	969.567
689.393	969.938
689.521	961.227
689.649	976.660
689.777	958.330
689.905	960.134
690.033	972.495
690.162	964.196
690.290	955.371
690.418	958.485
690.546	958.165
690.674	963.784
690.802	958.608
690.930	952.814
691.058	942.722
691.187	937.515
691.315	943.031
691.443	944.412
691.571	943.093
691.699	941.866
691.827	950.722
691.955	934.990
692.083	945.742
692.212	936.021
692.340	938.526
692.468	930.670
692.596	932.361
692.724	932.289
692.852	923.845
692.980	920.247
693.108	920.804
693.237	920.979
693.365	922.196
693.493	921.258
693.621	906.299
693.749	911.608
693.877	907.711
694.005	909.526
694.133	903.742
694.262	894.361
694.390	899.979
694.518	903.660
694.646	895.887
694.774	899.732
694.902	892.165
695.030	889.041
695.158	899.763
695.287	880.711
695.415	886.371
695.543	879.649
695.671	883.660
695.799	888.062
695.927	876.371
696.055	871.237
696.183	884.165
696.312	873.722
696.440	871.330
696.568	873.990
696.696	855.959
696.824	862.216
696.952	865.670
697.080	871.402
697.208	858.629
697.337	858.515
697.465	851.722
697.593	865.258
697.721	850.052
697.849	859.763
697.977	847.907
698.105	849.639
698.233	852.495
698.362	845.464
698.490	859.278
698.618	853.918
698.746	838.268
698.874	840.082
699.002	839.680
699.130	831.402
699.258	844.289
699.387	839.278
699.515	832.309
699.643	834.660
699.771	829.196
699.899	821.072
700.027	822.227
700.155	827.299
700.283	817.041
700.412	815.299
700.540	825.959
700.668	819.536
700.796	812.835
700.924	805.629
701.052	805.649
701.180	812.340
701.308	801.588
701.437	803.062
701.565	809.402
701.693	793.227
701.821	798.227
701.949	801.990
702.077	788.887
702.205	787.557
702.333	787.680
702.462	783.722
702.590	790.247
702.718	774.948
702.846	781.320
702.974	782.485
703.102	787.763
703.230	764.680
703.358	765.619
703.487	769.155
703.615	766.856
703.743	766.979
703.871	766.412
703.999	758.175
704.127	762.959
704.255	749.680
704.383	751.969
704.512	757.052
704.640	739.093
704.768	746.320
704.896	744.124
705.024	739.814
705.152	744.464
705.280	747.629
705.408	727.938
705.537	737.351
705.665	734.938
705.793	732.691
705.921	733.608
706.049	717.691
706.177	720.175
706.305	725.680
706.433	726.031
706.562	716.742
706.690	720.237
706.818	716.021
706.946	718.680
707.074	716.639
707.202	706.330
707.330	698.887
707.458	713.464
707.587	709.216
707.715	707.082
707.843	704.639
707.971	702.247
708.099	698.773
708.227	698.072
708.355	698.979
708.483	706.588
708.612	703.227
708.740	694.165
708.868	696.361
708.996	690.495
709.124	686.423
709.252	701.124
709.380	698.701
709.508	682.113
709.637	685.299
709.765	680.103
709.893	689.887
710.021	681.052
710.149	679.990
710.277	678.835
710.405	677.402
710.533	677.979
710.662	670.206
710.790	680.361
710.918	673.268
711.046	678.464
711.174	668.041
711.302	668.711
711.430	671.711
711.558	679.897
711.687	667.371
711.815	664.742
711.943	668.577
712.071	665.845
712.199	669.423
712.327	663.907
712.455	660.990
712.583	671.041
712.712	665.361
712.840	662.330
712.968	652.144
713.096	661.299
713.224	656.278
713.352	664.412
713.480	668.082
713.608	661.454
713.737	662.124
713.865	648.124
713.993	660.000
714.121	663.763
714.249	660.340
714.377	651.216
714.505	657.433
714.633	657.433
714.762	648.381
714.890	644.979
715.018	654.443
715.146	650.247
715.274	645.309
715.402	648.175
715.530	640.392
715.658	637.186
715.787	639.732
715.915	641.866
716.043	642.670
716.171	633.454
716.299	631.845
716.427	643.237
716.555	638.031
716.683	638.598
716.812	629.412
716.940	647.485
717.068	633.216
717.196	628.856
717.324	631.041
717.452	621.278
717.580	635.113
717.708	630.330
717.837	625.691
717.965	627.371
718.093	632.464
718.221	619.629
718.349	619.536
718.477	630.082
718.605	627.031
718.733	621.990
718.862	618.268
718.990	624.299
719.118	627.660
719.246	614.629
719.374	615.979
719.502	608.309
719.630	620.155
719.758	613.381
719.887	608.010
720.015	603.258
720.143	607.423
720.271	612.897
720.399	610.072
720.527	601.021
720.655	602.577
720.783	599.351
720.912	605.670
721.040	596.814
721.168	608.062
721.296	593.196
721.424	599.361
721.552	600.691
721.680	593.268
721.808	588.309
721.937	592.237
722.065	589.825
722.193	596.031
722.321	595.351
722.449	586.701
722.577	587.052
722.705	580.443
722.833	581.186
722.962	581.557
723.090	584.186
723.218	581.608
723.346	578.113
723.474	579.619
723.602	571.619
723.730	577.423
723.858	573.753
723.987	574.938
724.115	577.577
724.243	581.670
724.371	570.691
724.499	579.670
724.627	566.835
724.755	576.031
724.883	566.495
725.012	570.320
725.140	567.938
725.268	564.320
725.396	560.340
725.524	568.938
725.652	559.670
725.780	561.495
725.908	557.443
726.037	561.433
726.165	557.536
726.293	557.773
726.421	558.072
726.549	556.691
726.677	556.289
726.805	554.278
726.933	550.608
727.062	549.794
727.190	544.577
727.318	552.041
727.446	548.938
727.574	542.876
727.702	541.330
727.830	548.577
727.958	537.433
728.087	545.474
728.215	533.247
728.343	542.526
728.471	539.237
728.599	544.567
728.727	541.804
728.855	536.165
728.983	532.588
729.112	536.763
729.240	537.763
729.368	537.608
729.496	534.299
729.624	539.918
729.752	530.753
729.880	527.216
730.008	528.670
730.137	532.845
730.265	533.227
730.393	531.309
730.521	527.887
730.649	531.423
730.777	527.526
730.905	524.825
731.033	524.268
731.162	525.062
731.290	529.588
731.418	527.052
731.546	522.247
731.674	528.876
731.802	523.866
731.930	526.392
732.058	518.485
732.187	517.711
732.315	517.423
732.443	526.742
732.571	525.412
732.699	518.825
732.827	519.113
732.955	525.155
733.083	517.629
733.212	522.784
733.340	521.103
733.468	523.412
733.596	522.278
733.724	513.216
733.852	519.546
733.980	511.052
734.108	517.969
734.237	513.371
734.365	522.701
734.493	515.330
734.621	520.082
734.749	519.340
734.877	510.814
735.005	518.897
735.133	516.773
735.262	518.474
735.390	509.907
735.518	512.557
735.646	511.876
735.774	510.608
735.902	510.722
736.030	516.825
736.158	512.763
736.287	511.175
736.415	520.485
736.543	511.711
736.671	509.474
736.799	516.062
736.927	512.969
737.055	509.340
737.183	508.330
737.312	504.608
737.440	509.216
737.568	505.680
737.696	514.289
737.824	512.330
737.952	525.196
738.080	503.309
738.208	512.165
738.337	509.753
738.465	509.237
738.593	512.897
738.721	507.495
738.849	501.948
738.977	504.485
739.105	505.557
739.233	504.113
739.362	503.093
739.490	504.845
739.618	506.928
739.746	507.361
739.874	497.588
740.002	505.392
740.130	499.928
740.258	507.186
740.387	500.887
740.515	513.557
740.643	498.258
740.771	503.897
740.899	497.361
741.027	496.526
741.155	499.948
741.283	501.701
741.412	499.639
741.540	497.351
741.668	502.144
741.796	499.629
741.924	495.505
742.052	495.113
742.180	494.175
742.308	487.701
742.437	495.876
742.565	494.010
742.693	491.216
742.821	492.227
742.949	488.732
743.077	491.021
743.205	497.196
743.333	487.742
743.462	490.155
743.590	488.278
743.718	492.742
743.846	493.381
743.974	488.258
744.102	485.907
744.230	487.093
744.358	481.155
744.487	482.289
744.615	481.835
744.743	486.577
744.871	476.165
744.999	482.289
745.127	484.196
745.255	475.423
745.383	482.155
745.512	475.969
745.640	477.433
745.768	481.165
745.896	481.938
746.024	477.072
746.152	476.041
746.280	477.990
746.408	476.495
746.537	471.732
746.665	471.608
746.793	475.557
746.921	478.423
747.049	476.299
747.177	476.979
747.305	478.412
747.433	473.113
747.562	469.536
747.690	468.268
747.818	465.216
747.946	471.474
748.074	465.814
748.202	472.464
748.330	466.258
748.458	460.124
748.587	463.835
748.715	465.598
748.843	462.454
748.971	460.588
749.099	463.021
749.227	465.433
749.355	468.505
749.483	461.649
749.612	467.278
749.740	464.680
749.868	464.856
749.996	461.072
750.124	468.680
750.252	464.062
750.380	463.351
750.508	464.278
750.637	463.794
750.765	463.784
750.893	462.825
751.021	459.144
751.149	460.938
751.277	455.134
751.405	451.928
751.533	456.804
751.662	449.474
751.790	457.278
751.918	454.093
752.046	450.629
752.174	452.567
752.302	449.124
752.430	449.794
752.558	453.010
752.687	447.557
752.815	449.165
752.943	450.959
753.071	442.526
753.199	444.794
753.327	445.031
753.455	446.196
753.583	445.206
753.712	438.381
753.840	441.649
753.968	449.361
754.096	438.619
754.224	441.124
754.352	438.485
754.480	441.309
754.608	435.495
754.737	435.567
754.865	442.443
754.993	435.371
755.121	437.381
755.249	434.237
755.377	429.381
755.505	428.629
755.633	433.237
755.762	429.196
755.890	430.330
756.018	429.474
756.146	425.155
756.274	423.124
756.402	425.206
756.530	422.680
756.658	425.598
756.787	423.072
756.915	417.897
757.043	420.784
757.171	418.639
757.299	419.361
757.427	414.433
757.555	415.155
757.683	417.526
757.812	412.639
757.940	406.351
758.068	412.876
758.196	414.351
758.324	413.959
758.452	406.371
758.580	407.124
758.708	400.835
758.837	406.887
758.965	407.763
759.093	410.680
759.221	405.546
759.349	396.464
759.477	406.608
759.605	393.794
759.733	403.206
759.862	400.309
759.990	396.268
760.118	393.876
760.246	392.526
760.374	391.526
760.502	393.649
760.630	391.340
760.758	390.670
760.887	394.093
761.015	383.784
761.143	391.010
761.271	388.402
761.399	388.247
761.527	390.474
761.655	384.691
761.783	381.773
761.912	383.897
762.040	377.969
762.168	376.443
762.296	378.763
762.424	377.753
762.552	377.598
762.680	371.278
762.808	375.990
762.937	373.629
763.065	369.742
763.193	369.794
763.321	366.412
763.449	367.227
763.577	364.330
763.705	364.443
763.833	365.866
763.962	366.021
764.090	359.897
764.218	359.928
764.346	359.175
764.474	359.340
764.602	355.835
764.730	356.959
764.858	357.124
764.987	360.835
765.115	356.794
765.243	358.897
765.371	356.021
765.499	356.825
765.627	357.784
765.755	355.753
765.883	349.567
766.012	351.608
766.140	350.979
766.268	353.433
766.396	351.856
766.524	347.443
766.652	348.371
766.780	346.124
766.908	350.278
767.037	347.423
767.165	348.072
767.293	349.278
767.421	344.649
767.549	347.309
767.677	343.052
767.805	346.021
767.933	344.773
768.062	341.526
768.190	344.206
768.318	346.124
768.446	343.979
768.574	347.299
768.702	348.887
768.830	344.278
768.958	338.701
769.087	337.990
769.215	342.433
769.343	337.320
769.471	342.546
769.599	341.845
769.727	342.381
769.855	343.691
769.983	339.423
770.112	344.784
770.240	342.371
770.368	341.588
770.496	337.928
770.624	335.299
770.752	340.196
770.880	341.495
771.008	337.155
771.137	338.691
771.265	342.268
771.393	334.103
771.521	339.361
771.649	339.000
771.777	337.845
771.905	337.031
772.033	336.505
772.162	334.021
772.290	333.134
772.418	332.660
772.546	328.381
772.674	334.299
772.802	331.124
772.930	334.062
773.058	335.732
773.187	339.784
773.315	329.959
773.443	332.588
773.571	331.206
773.699	330.536
773.827	333.278
773.955	336.557
774.083	332.031
774.212	331.742
774.340	332.608
774.468	330.825
774.596	327.021
774.724	330.186
774.852	332.577
774.980	328.763
775.108	331.876
775.237	328.392
775.365	325.062
775.493	329.711
775.621	325.588
775.749	326.268
775.877	329.619
776.005	323.536
776.133	322.794
776.262	328.515
776.390	328.526
776.518	326.928
776.646	327.062
776.774	317.969
776.902	322.856
777.030	319.227
777.158	318.670
777.287	323.443
777.415	320.608
777.543	324.227
777.671	317.412
777.799	325.897
777.927	323.227
778.055	320.979
778.183	314.928
778.312	317.258
778.440	319.206
778.568	320.876
778.696	319.876
778.824	314.186
778.952	319.216
779.080	312.330
779.208	313.567
779.337	315.443
779.465	310.443
779.593	312.340
779.721	313.732
779.849	309.289
779.977	311.237
780.105	310.948
780.233	311.907
780.362	312.753
780.490	307.918
780.618	311.948
780.746	307.701
780.874	311.433
781.002	300.876
781.130	300.062
781.258	307.876
781.387	305.577
781.515	301.165
781.643	302.175
781.771	302.742
781.899	301.845
782.027	299.577
782.155	302.454
782.283	300.423
782.412	297.340
782.540	302.629
782.668	296.402
782.796	297.175
782.924	301.763
783.052	297.351
783.180	292.866
783.308	294.680
783.437	294.412
783.565	289.660
783.693	298.351
783.821	292.773
783.949	295.443
784.077	294.186
784.205	291.268
784.333	294.309
784.462	295.938
784.590	288.155
784.718	287.227
784.846	288.742
784.974	290.010
785.102	284.320
785.230	286.155
785.358	285.856
785.487	286.660
785.615	284.186
785.743	279.320
785.871	279.567
785.999	283.000
786.127	281.928
786.255	283.649
786.383	278.773
786.512	280.649
786.640	278.082
786.768	279.887
786.896	276.515
787.024	277.742
787.152	274.701
787.280	270.320
787.408	275.691
787.537	275.361
787.665	275.897
787.793	273.175
787.921	268.495
788.049	272.969
788.177	270.247
788.305	272.052
788.433	270.299
788.562	267.124
788.690	273.649
788.818	267.990
788.946	268.918
789.074	265.876
789.202	268.567
789.330	262.464
789.458	264.918
789.587	258.938
789.715	259.732
789.843	259.629
789.971	260.546
790.099	262.670
790.227	261.835
790.355	260.526
790.483	259.082
790.612	259.629
790.740	259.845
790.868	257.402
790.996	256.278
791.124	256.928
791.252	254.876
791.380	257.619
791.508	253.093
791.637	254.206
791.765	248.495
791.893	250.608
792.021	249.670
792.149	248.031
792.277	254.196
792.405	244.773
792.533	244.536
792.662	244.144
792.790	246.835
792.918	249.474
793.046	239.897
793.174	247.299
793.302	241.052
793.430	240.392
793.558	234.804
793.687	239.608
793.815	239.753
793.943	232.907
794.071	234.144
794.199	236.165
794.327	231.237
794.455	239.464
794.583	240.639
794.712	237.309
794.840	230.546
794.968	231.938
795.096	232.144
795.224	228.691
795.352	227.732
795.480	230.474
795.608	223.340
795.737	221.907
795.865	227.155
795.993	226.928
796.121	224.990
796.249	221.649
796.377	222.691
796.505	220.577
796.633	219.814
796.762	219.082
796.890	221.784
797.018	220.969
797.146	221.887
797.274	220.165
797.402	215.649
797.530	214.464
797.658	217.619
797.787	214.959
797.915	212.309
798.043	215.835
798.171	212.216
798.299	208.887
798.427	209.351
798.555	210.340
798.683	207.381
798.812	207.144
798.940	206.732
799.068	209.670
799.196	205.567
799.324	205.247
799.452	206.825
799.580	202.536
799.708	203.866
799.837	203.670
799.965	202.278
800.093	200.918
800.221	202.577
800.349	199.979
800.477	200.021
800.605	198.928
800.733	196.206
800.862	196.835
800.990	199.113
801.118	199.113
801.246	196.299
801.374	198.485
801.502	195.825
801.630	196.588
801.758	193.629
801.887	192.948
802.015	191.773
802.143	188.887
802.271	191.495
802.399	192.979
802.527	189.402
802.655	190.773
802.783	185.495
802.912	186.990
803.040	187.113
803.168	184.856
803.296	191.031
803.424	186.031
803.552	184.784
803.680	185.928
803.808	186.680
803.937	182.010
804.065	185.485
804.193	184.773
804.321	182.423
804.449	183.433
804.577	183.619
804.705	182.062
804.833	182.866
804.962	182.206
805.090	176.052
805.218	180.268
805.346	177.938
805.474	181.268
805.602	181.340
805.730	179.938
805.858	177.227
805.987	176.124
806.115	179.495
806.243	177.567
806.371	174.371
806.499	176.103
806.627	172.856
806.755	174.000
806.883	173.753
807.012	173.309
807.140	173.278
807.268	172.155
807.396	174.433
807.524	171.557
807.652	174.247
807.780	171.835
807.908	169.948
808.037	171.742
808.165	172.979
808.293	167.588
808.421	165.010
808.549	168.371
808.677	170.196
808.805	170.608
808.933	168.165
809.062	168.041
809.190	167.753
809.318	169.113
809.446	165.536
809.574	167.546
809.702	161.670
809.830	162.835
809.958	163.412
810.087	163.474
810.215	162.103
810.343	163.598
810.471	162.381
810.599	160.753
810.727	166.258
810.855	161.526
810.983	163.113
811.112	158.495
811.240	159.691
811.368	161.072
811.496	158.381
811.624	159.351
811.752	159.041
811.880	159.753
812.008	160.278
812.137	159.175
812.265	158.309
812.393	158.103
812.521	157.784
812.649	156.722
812.777	155.031
812.905	154.990
813.033	156.062
813.162	151.309
813.290	153.433
813.418	154.629
813.546	150.144
813.674	154.062
813.802	152.021
813.930	151.021
814.058	155.485
814.187	157.000
814.315	150.835
814.443	153.598
814.571	152.557
814.699	149.763
814.827	148.485
814.955	150.216
815.083	150.041
815.212	146.887
815.340	146.691
815.468	149.423
815.596	148.309
815.724	150.866
815.852	149.227
815.980	147.629
816.108	145.639
816.237	148.412
816.365	146.567
816.493	146.649
816.621	145.639
816.749	143.897
816.877	153.103
817.005	146.876
817.133	149.433
817.262	146.093
817.390	145.361
817.518	146.454
817.646	141.392
817.774	141.979
817.902	141.887
818.030	142.701
818.158	143.340
818.287	142.010
818.415	141.866
818.543	139.897
818.671	141.722
818.799	139.907
818.927	138.052
819.055	142.763
819.183	140.175
819.312	142.598
819.440	138.485
819.568	138.825
819.696	139.206
819.824	138.897
819.952	136.990
820.080	137.608
820.208	138.742
820.337	140.340
820.465	135.392
820.593	135.330
820.721	136.412
820.849	134.361
820.977	134.619
821.105	137.216
821.233	133.041
821.362	136.825
821.490	133.876
821.618	135.711
821.746	133.567
821.874	132.629
822.002	133.526
822.130	136.918
822.258	130.897
822.387	130.258
822.515	132.144
822.643	131.206
822.771	130.052
822.899	131.763
823.027	128.381
823.155	130.237
823.283	133.000
823.412	133.361
823.540	129.773
823.668	130.010
823.796	128.557
823.924	126.155
824.052	128.670
824.180	128.402
824.308	126.866
824.437	131.052
824.565	129.629
824.693	126.732
824.821	129.505
824.949	129.474
825.077	128.278
825.205	123.608
825.333	126.577
825.462	125.093
825.590	126.959
825.718	125.711
825.846	125.639
825.974	126.103
826.102	124.175
826.230	126.247
826.358	126.763
826.487	126.165
826.615	124.918
826.743	124.289
826.871	124.134
826.999	123.753
827.127	126.062
827.255	124.485
827.383	124.722
827.512	123.753
827.640	127.289
827.768	125.959
827.896	122.649
828.024	122.701
828.152	120.598
828.280	122.392
828.408	122.660
828.537	124.412
828.665	120.918
828.793	122.732
828.921	123.567
829.049	121.825
829.177	121.814
829.305	124.485
829.433	119.113
829.562	120.227
829.690	118.938
829.818	120.268
829.946	120.155
830.074	119.371
830.202	119.052
830.330	117.278
830.458	117.526
830.587	119.072
830.715	118.186
830.843	119.763
830.971	118.062
831.099	118.722
831.227	118.515
831.355	118.711
831.483	117.309
831.612	119.794
831.740	116.979
831.868	117.887
831.996	117.845
832.124	117.773
832.252	117.433
832.380	119.278
832.508	118.701
832.637	117.619
832.765	116.608
832.893	118.371
833.021	118.423
833.149	117.907
833.277	117.515
833.405	116.577
833.533	115.598
833.662	115.732
833.790	113.691
833.918	116.402
834.046	115.258
834.174	115.784
834.302	114.814
834.430	113.856
834.558	116.268
834.687	115.392
834.815	114.928
834.943	112.660
835.071	114.959
835.199	114.423
835.327	113.876
835.455	114.299
835.583	114.247
835.712	113.948
835.840	113.340
835.968	114.196
836.096	113.485
836.224	112.320
836.352	112.289
836.480	113.340
836.608	112.330
836.737	113.701
836.865	112.691
836.993	113.464
837.121	117.093
837.249	112.804
837.377	111.763
837.505	110.546
837.633	112.021
837.762	113.691
837.890	112.206
838.018	111.031
838.146	109.206
838.274	108.691
838.402	112.763
838.530	111.660
838.658	111.113
838.787	109.701
838.915	109.433
839.043	110.670
839.171	111.423
839.299	111.082
839.427	110.227
839.555	111.371
839.683	110.814
839.812	112.103
839.940	109.082
840.068	109.196
840.196	111.557
840.324	109.670
840.452	108.990
840.580	109.804
840.708	110.072
840.837	110.041
840.965	110.969
841.093	109.309
841.221	109.887
841.349	109.928
841.477	109.928
841.605	108.959
841.733	108.577
841.862	109.371
841.990	108.175
842.118	110.505
842.246	109.289
842.374	107.227
842.502	108.247
842.630	107.794
842.758	107.247
842.887	106.753
843.015	107.536
843.143	109.031
843.271	108.649
843.399	110.247
843.527	109.701
843.655	106.598
843.783	106.887
843.912	107.536
844.040	107.206
844.168	107.990
844.296	109.124
844.424	107.814
844.552	107.928
844.680	106.804
844.808	105.742
844.937	107.216
845.065	107.299
845.193	107.124
845.321	108.186
845.449	107.155
845.577	106.371
845.705	107.134
845.833	106.423
845.962	106.742
846.090	107.887
846.218	107.082
846.346	106.897
846.474	106.443
846.602	105.876
846.730	105.526
846.858	104.753
846.987	105.608
847.115	105.835
847.243	104.237
847.371	105.536
847.499	106.062
847.627	105.680
847.755	106.773
847.883	105.113
848.012	105.515
848.140	104.423
848.268	104.691
848.396	104.526
848.524	107.186
848.652	105.309
848.780	104.412
848.908	106.495
849.037	106.021
849.165	104.165
849.293	104.825
849.421	105.649
849.549	104.247
849.677	104.763
849.805	105.495
849.933	105.732
850.062	105.093
850.190	105.175
850.318	104.959
850.446	104.454
850.574	105.041
850.702	104.979
850.830	104.052
850.958	104.062
851.087	104.732
851.215	104.711
851.343	103.701
851.471	104.680
851.599	104.773
851.727	104.959
851.855	105.134
851.983	103.196
852.112	103.608
852.240	105.856
852.368	102.897
852.496	103.124
852.624	104.093
852.752	103.515
852.880	103.289
853.008	103.639
853.137	103.165
853.265	103.629
853.393	102.144
853.521	102.309
853.649	103.515
853.777	103.423
853.905	102.887
854.033	103.969
854.162	103.103
854.290	103.515
854.418	102.474
854.546	102.979
854.674	102.804
854.802	102.268
854.930	101.784
855.058	101.876
855.187	103.546
855.315	103.753
855.443	103.526
855.571	104.175
855.699	102.619
855.827	101.887
855.955	101.907
856.083	103.588
856.212	102.567
856.340	103.866
856.468	103.619
856.596	101.773
856.724	103.144
856.852	103.711
856.980	101.474
857.108	102.464
857.237	102.598
857.365	103.474
857.493	102.392
857.621	103.763
857.749	102.588
857.877	101.773
858.005	102.670
858.133	100.845
858.262	102.237
858.390	102.536
858.518	102.175
858.646	103.330
858.774	101.969
858.902	103.381
859.030	103.330
859.158	104.505
859.287	101.134
859.415	100.928
859.543	101.588
859.671	101.588
859.799	102.000
859.927	103.567
860.055	103.196
860.183	102.392
860.312	101.887
860.440	102.010
860.568	102.412
860.696	101.856
860.824	101.804
860.952	101.567
861.080	101.691
861.208	101.794
861.337	101.423
861.465	101.845
861.593	102.546
861.721	103.485
861.849	102.536
861.977	102.485
862.105	101.608
862.233	104.072
862.362	102.577
862.490	99.485
862.618	102.196
862.746	100.423
862.874	101.804
863.002	101.732
863.130	102.165
863.258	102.598
863.387	102.186
863.515	101.113
863.643	100.835
863.771	101.186
863.899	101.742
864.027	102.309
864.155	101.515
864.283	101.495
864.412	101.526
864.540	102.010
864.668	101.412
864.796	101.299
864.924	101.536
865.052	101.165
865.180	103.639
865.308	101.835
865.437	100.773
865.565	101.134
865.693	100.557
865.821	101.814
865.949	102.825
866.077	102.835
866.205	102.103
866.333	102.753
866.462	100.381
866.590	100.351
866.718	102.268
866.846	102.227
866.974	103.515
867.102	99.990
867.230	102.072
867.358	100.794
867.487	101.062
867.615	100.206
867.743	100.938
867.871	102.062
867.999	101.515
868.127	100.392
868.255	101.402
868.383	100.979
868.512	102.639
868.640	101.443
868.768	101.021
868.896	100.598
869.024	100.784
869.152	101.062
869.280	101.278
869.408	100.814
869.537	100.918
869.665	101.227
869.793	101.526
869.921	101.464
870.049	101.835
870.177	102.938
870.305	100.814
870.433	101.299
870.562	101.186
870.690	99.433
870.818	101.505
870.946	101.546
871.074	101.979
871.202	102.351
871.330	100.289
871.458	102.763
871.587	101.392
871.715	101.876
871.843	100.938
871.971	101.381
872.099	100.454
872.227	100.784
872.355	100.629
872.483	100.412
872.612	101.732
872.740	101.557
872.868	101.876
872.996	99.340
873.124	98.866
873.252	102.773
873.380	101.928
873.508	100.907
873.637	101.608
873.765	100.113
873.893	99.608
874.021	101.660
874.149	101.567
874.277	101.660
874.405	101.082
874.533	100.639
874.662	100.216
874.790	101.361
874.918	99.948
875.046	99.835
875.174	100.608
875.302	100.113
875.430	101.289
875.558	99.485
875.687	101.144
875.815	103.072
875.943	101.227
876.071	101.639
876.199	101.216
876.327	100.866
876.455	103.021
876.583	101.124
876.712	101.134
876.840	100.371
876.968	102.237
877.096	99.887
877.224	99.979
877.352	101.247
877.480	101.495
877.608	100.309
877.737	100.619
877.865	102.010
877.993	100.629
878.121	100.649
878.249	101.660
878.377	100.113
878.505	100.351
878.633	101.340
878.762	101.371
878.890	99.784
879.018	101.062
879.146	100.928
879.274	101.021
879.402	102.454
879.530	100.495
879.658	99.546
879.787	100.031
879.915	100.495
880.043	101.351
880.171	100.474
880.299	100.660
880.427	100.825
880.555	100.567
880.683	102.474
880.812	101.856
880.940	100.052
881.068	101.433
881.196	99.804
881.324	100.948
881.452	100.907
881.580	101.897
881.708	101.309
881.837	100.619
881.965	99.588
882.093	101.794
882.221	100.299
882.349	99.557
882.477	100.948
882.605	101.340
882.733	99.072
882.862	101.577
882.990	103.289
883.118	101.649
883.246	101.557
883.374	102.155
883.502	101.144
883.630	100.938
883.758	100.557
883.887	101.155
884.015	100.649
884.143	102.876
884.271	100.845
884.399	101.722
884.527	100.247
884.655	100.691
884.783	100.897
884.912	99.608
885.040	100.814
885.168	101.093
885.296	100.175
885.424	100.866
885.552	101.639
885.680	100.093
885.808	100.546
885.937	101.021
886.065	98.680
886.193	99.866
886.321	100.598
886.449	100.299
886.577	100.598
886.705	99.351
886.833	101.794
886.962	101.505
887.090	99.876
887.218	99.835
887.346	100.402
887.474	100.742
887.602	100.639
887.730	99.495
887.858	99.124
887.987	100.928
888.115	100.216
888.243	101.381
888.371	100.701
888.499	102.474
888.627	100.309
888.755	99.979
888.883	102.289
889.012	100.959
889.140	100.918
889.268	100.619
889.396	101.216
889.524	99.093
889.652	100.814
889.780	100.124
889.908	101.320
890.037	100.969
890.165	99.990
890.293	97.990
890.421	99.907
890.549	100.948
890.677	99.753
890.805	100.289
890.933	100.567
891.062	101.402
891.190	99.866
891.318	99.742
891.446	101.041
891.574	101.206
891.702	99.402
891.830	100.959
891.958	101.134
892.087	100.918
892.215	100.526
892.343	101.845
892.471	99.227
892.599	101.351
892.727	99.825
892.855	102.907
892.983	100.371
893.112	100.680
893.240	99.845
893.368	100.351
893.496	99.990
893.624	100.928
893.752	100.216
893.880	99.835
894.008	101.186
894.137	101.289
894.265	100.660
894.393	99.041
894.521	101.072
894.649	100.938
894.777	100.773
894.905	101.041
895.033	101.670
895.162	101.845
895.290	100.392
895.418	101.794
895.546	101.155
895.674	101.155
895.802	101.021
895.930	101.876
896.058	101.515
896.187	100.577
896.315	102.052
896.443	101.155
896.571	101.825
896.699	100.887
896.827	99.402
896.955	100.969
897.083	101.567
897.212	101.299
897.340	99.701
897.468	98.649
897.596	100.186
897.724	99.021
897.852	100.546
897.980	99.928
898.108	99.948
898.237	101.485
898.365	101.454
898.493	100.732
898.621	101.072
898.749	100.722
898.877	99.577
899.005	101.031
899.133	101.402
899.262	100.608
899.390	99.990
899.518	99.845
899.646	100.804
899.774	99.907
899.902	99.680
900.030	102.216
900.158	101.196
900.287	101.227
900.415	100.505
900.543	99.412
900.671	101.216
900.799	98.814
900.927	100.887
901.055	100.928
901.183	100.773
901.312	100.825
901.440	100.134
901.568	102.124
901.696	101.278
901.824	99.814
901.952	99.588
902.080	100.567
902.208	100.567
902.337	99.835
902.465	99.928
902.593	100.577
902.721	99.443
902.849	100.175
902.977	99.608
903.105	101.134
903.233	100.814
903.362	101.371
903.490	101.227
903.618	99.588
903.746	99.278
903.874	100.186
904.002	103.423
904.130	102.052
904.258	101.392
904.387	100.227
904.515	100.381
904.643	99.464
904.771	99.381
904.899	100.732
905.027	100.814
905.155	100.443
905.283	100.216
905.412	101.557
905.540	101.505
905.668	101.608
905.796	100.485
905.924	100.959
906.052	99.732
906.180	102.753
906.308	101.361
906.437	99.546
906.565	100.763
906.693	100.928
906.821	100.866
906.949	100.515
907.077	100.237
907.205	99.371
907.333	99.268
907.462	101.660
907.590	100.062
907.718	100.454
907.846	101.722
907.974	101.144
908.102	100.866
908.230	99.402
908.358	98.423
908.487	99.474
908.615	100.948
908.743	101.722
908.871	100.309
908.999	100.031
909.127	100.649
909.255	100.907
909.383	100.814
909.512	101.320
909.640	101.021
909.768	100.773
909.896	101.649
910.024	100.928
910.152	102.361
910.280	101.639
910.408	99.309
910.537	100.608
910.665	100.186
910.793	100.258
910.921	101.588
911.049	100.062
911.177	102.072
911.305	101.948
911.433	102.670
911.562	101.608
911.690	102.361
911.818	100.649
911.946	101.392
912.074	101.052
912.202	101.351
912.330	100.918
912.458	100.711
912.587	100.113
912.715	99.928
912.843	102.340
912.971	103.670
913.099	101.701
913.227	101.299
913.355	101.351
913.483	100.227
913.612	102.082
913.740	102.515
913.868	100.526
