sample2u_at_750.00nm_cut_at_1200.50Y_01.dat
19.06.2023
10:49:54
cut middle at Y: 1200.50
top cursor: 1249 down cursor: 1152 mean of: 97 lines , 2560 datapoints
wavelength(nm)	intensity[arb. units]
585.996	3227.402
586.124	3130.010
586.252	3091.340
586.380	3112.608
586.508	3121.258
586.637	3169.227
586.765	3103.454
586.893	3118.474
587.021	3180.753
587.149	3110.021
587.277	3123.856
587.405	3132.423
587.533	3173.557
587.662	3219.495
587.790	3164.619
587.918	3165.371
588.046	3141.918
588.174	3167.928
588.302	3155.237
588.430	3131.773
588.558	3185.392
588.687	3185.794
588.815	3166.629
588.943	3200.052
589.071	3167.443
589.199	3187.000
589.327	3186.289
589.455	3283.155
589.583	3224.351
589.712	3217.505
589.840	3213.515
589.968	3208.969
590.096	3223.784
590.224	3184.227
590.352	3240.093
590.480	3199.546
590.608	3234.629
590.737	3227.990
590.865	3350.361
590.993	3220.474
591.121	3284.464
591.249	3226.454
591.377	3226.866
591.505	3367.918
591.633	3234.340
591.762	3260.052
591.890	3249.351
592.018	3361.588
592.146	3247.082
592.274	3267.000
592.402	3218.526
592.530	3435.351
592.658	3319.701
592.787	3283.093
592.915	3349.474
593.043	3272.031
593.171	3279.433
593.299	3315.649
593.427	3300.299
593.555	3321.320
593.683	3299.041
593.812	3334.175
593.940	3324.938
594.068	3329.124
594.196	3325.928
594.324	3349.113
594.452	3537.814
594.580	3373.979
594.708	3417.278
594.837	3370.464
594.965	3441.567
595.093	3405.351
595.221	3447.000
595.349	3402.845
595.477	3413.031
595.605	3416.784
595.733	3417.845
595.862	3455.835
595.990	3481.928
596.118	3522.021
596.246	3555.763
596.374	3458.928
596.502	3465.103
596.630	3499.639
596.758	3496.464
596.887	3500.165
597.015	3487.567
597.143	3488.278
597.271	3512.701
597.399	3533.000
597.527	3507.536
597.655	3492.021
597.783	3510.845
597.912	3517.608
598.040	3538.835
598.168	3506.938
598.296	3482.629
598.424	3683.763
598.552	3516.247
598.680	3506.897
598.808	3535.701
598.937	3498.794
599.065	3511.969
599.193	3559.361
599.321	3543.144
599.449	3495.990
599.577	3496.845
599.705	3551.856
599.833	3516.598
599.962	3499.021
600.090	3556.371
600.218	3557.918
600.346	3530.392
600.474	3534.299
600.602	3512.784
600.730	3488.289
600.858	3494.093
600.987	3562.392
601.115	3571.361
601.243	3616.124
601.371	3632.814
601.499	3613.175
601.627	3581.979
601.755	3559.856
601.883	3637.753
602.012	3535.536
602.140	3662.454
602.268	3619.577
602.396	3746.557
602.524	3601.206
602.652	3689.134
602.780	3663.247
602.908	3674.711
603.037	3727.866
603.165	3716.629
603.293	3695.969
603.421	3726.691
603.549	3725.433
603.677	3759.351
603.805	3733.010
603.933	3752.299
604.062	3783.505
604.190	3823.979
604.318	3815.113
604.446	3799.845
604.574	3859.196
604.702	3910.423
604.830	3842.258
604.958	3859.144
605.087	3896.928
605.215	3922.062
605.343	3987.619
605.471	3923.361
605.599	3926.278
605.727	4004.990
605.855	3948.021
605.983	3977.278
606.112	4000.082
606.240	3991.021
606.368	4002.619
606.496	3985.196
606.624	4054.753
606.752	4001.515
606.880	4055.433
607.008	3993.062
607.137	3986.103
607.265	4090.969
607.393	4012.010
607.521	4089.052
607.649	4027.010
607.777	4060.340
607.905	4081.371
608.033	4046.041
608.162	4091.443
608.290	4073.082
608.418	4167.711
608.546	4105.124
608.674	4143.052
608.802	4078.299
608.930	4078.175
609.058	4041.330
609.187	4038.206
609.315	4084.990
609.443	4073.907
609.571	4205.155
609.699	4064.433
609.827	4146.835
609.955	4116.474
610.083	4075.918
610.212	4092.660
610.340	4099.392
610.468	4089.505
610.596	4123.392
610.724	4078.856
610.852	4144.381
610.980	4108.103
611.108	4092.608
611.237	4091.577
611.365	4114.969
611.493	4091.567
611.621	4098.866
611.749	4147.680
611.877	4196.320
612.005	4154.577
612.133	4201.701
612.262	4141.402
612.390	4231.711
612.518	4239.495
612.646	4166.577
612.774	4235.433
612.902	4231.588
613.030	4197.216
613.158	4241.103
613.287	4317.598
613.415	4195.660
613.543	4272.093
613.671	4275.485
613.799	4290.247
613.927	4319.691
614.055	4299.124
614.183	4302.557
614.312	4270.567
614.440	4427.000
614.568	4356.021
614.696	4369.093
614.824	4343.629
614.952	4387.928
615.080	4363.134
615.208	4409.742
615.337	4489.701
615.465	4381.402
615.593	4467.784
615.721	4426.485
615.849	4498.907
615.977	4450.206
616.105	4478.588
616.233	4468.629
616.362	4503.794
616.490	4492.660
616.618	4517.464
616.746	4601.505
616.874	4556.546
617.002	4544.814
617.130	4535.753
617.258	4502.732
617.387	4545.361
617.515	4563.052
617.643	4559.907
617.771	4644.629
617.899	4558.309
618.027	4637.392
618.155	4625.247
618.283	4613.588
618.412	4618.062
618.540	4651.031
618.668	4633.351
618.796	4634.454
618.924	4576.495
619.052	4686.423
619.180	4634.629
619.308	4659.381
619.437	4678.464
619.565	4690.320
619.693	4669.134
619.821	4716.361
619.949	4658.763
620.077	4688.732
620.205	4728.629
620.333	4744.959
620.462	4679.701
620.590	4717.876
620.718	4733.237
620.846	4735.515
620.974	4730.794
621.102	4769.010
621.230	4741.103
621.358	4898.186
621.487	4729.361
621.615	4783.536
621.743	4725.670
621.871	4815.711
621.999	4717.928
622.127	4764.784
622.255	4770.041
622.383	4746.062
622.512	4741.557
622.640	4752.814
622.768	4790.835
622.896	4864.351
623.024	4829.392
623.152	4768.361
623.280	4837.557
623.408	4772.588
623.537	4785.536
623.665	4773.402
623.793	4837.289
623.921	4833.990
624.049	4818.392
624.177	4838.062
624.305	4808.948
624.433	4836.629
624.562	4837.268
624.690	4973.144
624.818	4783.423
624.946	4891.732
625.074	4834.402
625.202	4809.237
625.330	4865.639
625.458	4936.918
625.587	4850.330
625.715	4914.433
625.843	4871.392
625.971	4877.196
626.099	4888.392
626.227	4918.567
626.355	4853.753
626.483	4957.557
626.612	4872.598
626.740	4892.227
626.868	4887.134
626.996	4960.289
627.124	4908.010
627.252	4884.361
627.380	4904.711
627.508	4916.144
627.637	4972.031
627.765	4928.041
627.893	4973.784
628.021	5052.010
628.149	4923.381
628.277	5062.433
628.405	4985.526
628.533	5001.742
628.662	5041.330
628.790	5099.608
628.918	4985.485
629.046	5134.825
629.174	5005.258
629.302	5073.660
629.430	4991.237
629.558	5064.052
629.687	5029.866
629.815	5094.598
629.943	5169.773
630.071	5107.155
630.199	5070.536
630.327	5095.990
630.455	5122.722
630.583	5102.670
630.712	5133.062
630.840	5165.289
630.968	5165.639
631.096	5134.732
631.224	5158.361
631.352	5295.041
631.480	5170.392
631.608	5357.856
631.737	5179.381
631.865	5335.340
631.993	5294.763
632.121	5369.052
632.249	5247.247
632.377	5242.021
632.505	5238.278
632.633	5253.845
632.762	5224.031
632.890	5256.814
633.018	5239.639
633.146	5238.979
633.274	5222.206
633.402	5336.227
633.530	5263.278
633.658	5265.711
633.787	5245.103
633.915	5259.237
634.043	5280.701
634.171	5293.526
634.299	5252.196
634.427	5249.062
634.555	5511.670
634.683	5275.557
634.812	5295.186
634.940	5245.485
635.068	5286.567
635.196	5260.670
635.324	5252.186
635.452	5267.722
635.580	5374.392
635.708	5220.763
635.837	5269.680
635.965	5288.577
636.093	5252.412
636.221	5241.186
636.349	5176.443
636.477	5216.959
636.605	5248.423
636.733	5219.320
636.862	5188.155
636.990	5258.732
637.118	5240.237
637.246	5199.773
637.374	5326.742
637.502	5184.351
637.630	5189.845
637.758	5208.990
637.887	5144.598
638.015	5289.299
638.143	5190.258
638.271	5154.711
638.399	5222.155
638.527	5140.216
638.655	5168.567
638.783	5180.320
638.912	5249.732
639.040	5194.485
639.168	5154.536
639.296	5146.412
639.424	5216.979
639.552	5155.155
639.680	5212.938
639.808	5175.134
639.937	5124.959
640.065	5127.124
640.193	5120.474
640.321	5249.701
640.449	5202.320
640.577	5131.876
640.705	5158.062
640.833	5158.258
640.962	5248.144
641.090	5111.639
641.218	5156.216
641.346	5235.814
641.474	5152.144
641.602	5165.979
641.730	5141.928
641.858	5126.948
641.987	5115.082
642.115	5328.340
642.243	5195.433
642.371	5339.825
642.499	5206.557
642.627	5276.062
642.755	5172.897
642.883	5185.144
643.012	5214.443
643.140	5257.186
643.268	5252.402
643.396	5186.144
643.524	5241.454
643.652	5324.371
643.780	5198.371
643.908	5190.299
644.037	5305.474
644.165	5289.216
644.293	5385.763
644.421	5189.979
644.549	5296.701
644.677	5300.227
644.805	5236.186
644.933	5221.175
645.062	5239.381
645.190	5390.155
645.318	5300.557
645.446	5187.515
645.574	5162.309
645.702	5292.990
645.830	5247.649
645.958	5210.320
646.087	5205.423
646.215	5200.454
646.343	5196.144
646.471	5376.691
646.599	5187.227
646.727	5177.918
646.855	5200.711
646.983	5163.433
647.112	5260.784
647.240	5193.351
647.368	5252.505
647.496	5163.835
647.624	5186.577
647.752	5163.000
647.880	5117.392
648.008	5181.010
648.137	5182.546
648.265	5114.433
648.393	5214.876
648.521	5132.515
648.649	5262.093
648.777	5206.134
648.905	5157.753
649.033	5212.062
649.162	5101.175
649.290	5066.680
649.418	5087.691
649.546	5254.938
649.674	5072.000
649.802	5057.392
649.930	5024.443
650.058	5010.309
650.187	5059.474
650.315	5017.536
650.443	5028.557
650.571	5037.845
650.699	4996.299
650.827	4959.907
650.955	4978.216
651.083	5071.351
651.212	4916.773
651.340	5010.258
651.468	4944.835
651.596	5013.412
651.724	5014.041
651.852	4942.289
651.980	4938.134
652.108	4920.412
652.237	4909.093
652.365	4890.784
652.493	4890.557
652.621	4855.464
652.749	4866.742
652.877	4856.299
653.005	4917.773
653.133	4832.918
653.262	4811.948
653.390	4833.814
653.518	4970.186
653.646	4813.412
653.774	4815.691
653.902	4856.753
654.030	4810.021
654.158	4767.670
654.287	4823.825
654.415	4784.660
654.543	4769.588
654.671	4739.155
654.799	4747.052
654.927	4733.227
655.055	4704.825
655.183	4705.165
655.312	4707.526
655.440	4679.969
655.568	4657.526
655.696	4741.330
655.824	4659.392
655.952	4640.825
656.080	4632.216
656.208	4646.021
656.337	4662.206
656.465	4796.351
656.593	4634.722
656.721	4693.784
656.849	4736.175
656.977	4535.918
657.105	4609.165
657.233	4592.794
657.362	4628.557
657.490	4570.268
657.618	4581.784
657.746	4580.835
657.874	4537.918
658.002	4555.691
658.130	4510.340
658.258	4554.237
658.387	4470.093
658.515	4491.835
658.643	4484.474
658.771	4524.052
658.899	4433.577
659.027	4454.289
659.155	4457.021
659.283	4427.237
659.412	4479.948
659.540	4452.557
659.668	4473.732
659.796	4504.206
659.924	4450.753
660.052	4485.227
660.180	4377.381
660.308	4451.289
660.437	4413.680
660.565	4402.402
660.693	4332.680
660.821	4545.907
660.949	4333.567
661.077	4392.639
661.205	4493.794
661.333	4325.155
661.462	4296.495
661.590	4443.814
661.718	4330.443
661.846	4340.103
661.974	4326.619
662.102	4312.691
662.230	4340.928
662.358	4238.835
662.487	4305.402
662.615	4280.588
662.743	4324.763
662.871	4252.021
662.999	4229.928
663.127	4248.041
663.255	4210.649
663.383	4363.165
663.512	4172.969
663.640	4225.660
663.768	4240.443
663.896	4191.639
664.024	4211.948
664.152	4156.258
664.280	4252.320
664.408	4168.546
664.537	4142.918
664.665	4160.557
664.793	4169.938
664.921	4133.876
665.049	4215.691
665.177	4123.515
665.305	4146.619
665.433	4147.814
665.562	4252.948
665.690	4132.546
665.818	4255.320
665.946	4061.598
666.074	4053.856
666.202	4072.711
666.330	4025.021
666.458	4142.763
666.587	4015.753
666.715	4044.186
666.843	4025.959
666.971	4057.979
667.099	4074.722
667.227	4085.175
667.355	4086.753
667.483	4007.928
667.612	4032.237
667.740	4046.134
667.868	3992.474
667.996	3962.268
668.124	4012.464
668.252	4078.320
668.380	3969.732
668.508	3969.000
668.637	3982.515
668.765	4026.361
668.893	4000.722
669.021	3903.196
669.149	3985.722
669.277	3918.557
669.405	3993.258
669.533	3965.206
669.662	3892.216
669.790	3901.082
669.918	3934.722
670.046	4023.598
670.174	3851.701
670.302	3829.340
670.430	3836.330
670.558	3881.258
670.687	3997.093
670.815	3828.381
670.943	3876.670
671.071	3782.711
671.199	3765.402
671.327	3786.165
671.455	3780.278
671.583	3761.825
671.712	3724.763
671.840	3776.485
671.968	3896.155
672.096	3873.423
672.224	3687.639
672.352	3664.887
672.480	3643.000
672.608	3709.526
672.737	3647.155
672.865	3617.062
672.993	3650.247
673.121	3619.691
673.249	3617.773
673.377	3569.814
673.505	3567.505
673.633	3619.144
673.762	3529.670
673.890	3539.454
674.018	3562.825
674.146	3505.701
674.274	3517.670
674.402	3570.186
674.530	3495.784
674.658	3486.979
674.787	3482.598
674.915	3629.711
675.043	3464.845
675.171	3494.010
675.299	3424.258
675.427	3422.588
675.555	3405.464
675.683	3425.649
675.812	3391.268
675.940	3366.144
676.068	3355.474
676.196	3375.474
676.324	3316.907
676.452	3297.959
676.580	3279.155
676.708	3304.247
676.837	3301.567
676.965	3411.536
677.093	3440.371
677.221	3316.742
677.349	3231.113
677.477	3319.206
677.605	3234.567
677.733	3233.309
677.862	3237.495
677.990	3234.072
678.118	3275.340
678.246	3185.536
678.374	3265.546
678.502	3208.876
678.630	3154.856
678.758	3179.680
678.887	3321.289
679.015	3099.021
679.143	3115.835
679.271	3092.320
679.399	3105.526
679.527	3154.825
679.655	3177.814
679.783	3054.381
679.912	3054.309
680.040	3252.155
680.168	3053.392
680.296	3069.021
680.424	3056.278
680.552	3039.866
680.680	2996.113
680.808	2982.969
680.937	2980.649
681.065	3058.629
681.193	2996.814
681.321	2966.515
681.449	2999.340
681.577	2971.330
681.705	2907.979
681.833	2969.155
681.962	2951.134
682.090	2910.763
682.218	2945.990
682.346	2937.979
682.474	2893.536
682.602	2885.557
682.730	2940.557
682.858	2857.856
682.987	2871.186
683.115	2908.330
683.243	2881.557
683.371	2878.856
683.499	2827.979
683.627	2889.454
683.755	2862.052
683.883	2808.784
684.012	2871.526
684.140	2814.732
684.268	2811.351
684.396	2880.392
684.524	2802.722
684.652	2829.278
684.780	2811.722
684.908	2833.835
685.037	2809.897
685.165	2819.804
685.293	2857.247
685.421	2820.515
685.549	2810.763
685.677	2773.536
685.805	2824.515
685.933	2792.732
686.062	2799.536
686.190	2765.443
686.318	2779.247
686.446	2750.866
686.574	2722.423
686.702	2784.649
686.830	2751.876
686.958	2798.948
687.087	2723.299
687.215	2733.072
687.343	2752.804
687.471	2834.134
687.599	2688.289
687.727	2679.691
687.855	2688.433
687.983	2664.629
688.112	2699.845
688.240	2673.680
688.368	2684.959
688.496	2670.464
688.624	2656.567
688.752	2742.361
688.880	2660.701
689.008	2655.742
689.137	2647.186
689.265	2636.412
689.393	2630.361
689.521	2625.526
689.649	2663.907
689.777	2623.804
689.905	2633.082
690.033	2600.938
690.162	2591.495
690.290	2590.320
690.418	2586.670
690.546	2590.763
690.674	2581.443
690.802	2571.784
690.930	2564.134
691.058	2555.722
691.187	2532.897
691.315	2526.814
691.443	2549.443
691.571	2536.588
691.699	2519.959
691.827	2522.505
691.955	2502.443
692.083	2501.876
692.212	2495.639
692.340	2481.412
692.468	2463.072
692.596	2482.639
692.724	2471.361
692.852	2453.856
692.980	2469.093
693.108	2446.021
693.237	2442.381
693.365	2425.670
693.493	2408.928
693.621	2410.330
693.749	2396.866
693.877	2398.134
694.005	2385.763
694.133	2377.773
694.262	2365.268
694.390	2369.515
694.518	2368.536
694.646	2349.691
694.774	2339.567
694.902	2338.052
695.030	2326.649
695.158	2340.990
695.287	2303.536
695.415	2320.000
695.543	2291.701
695.671	2274.505
695.799	2301.567
695.927	2270.691
696.055	2274.753
696.183	2267.464
696.312	2283.814
696.440	2256.175
696.568	2248.330
696.696	2236.361
696.824	2246.485
696.952	2231.887
697.080	2229.330
697.208	2210.619
697.337	2223.454
697.465	2212.062
697.593	2214.742
697.721	2202.938
697.849	2192.144
697.977	2179.000
698.105	2164.124
698.233	2176.856
698.362	2152.206
698.490	2173.474
698.618	2151.639
698.746	2125.247
698.874	2121.742
699.002	2125.010
699.130	2115.742
699.258	2129.814
699.387	2108.546
699.515	2100.124
699.643	2104.155
699.771	2087.701
699.899	2075.206
700.027	2066.784
700.155	2077.959
700.283	2056.454
700.412	2049.392
700.540	2064.196
700.668	2055.784
700.796	2029.144
700.924	2021.237
701.052	1996.866
701.180	2013.845
701.308	1998.320
701.437	1997.629
701.565	2000.639
701.693	1964.701
701.821	1980.330
701.949	1975.608
702.077	1975.887
702.205	1953.258
702.333	1958.402
702.462	1929.784
702.590	1949.144
702.718	1933.567
702.846	1914.866
702.974	1903.330
703.102	1913.969
703.230	1908.237
703.358	1876.464
703.487	1876.433
703.615	1877.412
703.743	1868.814
703.871	1863.144
703.999	1846.629
704.127	1825.897
704.255	1852.340
704.383	1822.845
704.512	1828.722
704.640	1792.948
704.768	1795.258
704.896	1791.124
705.024	1789.753
705.152	1775.485
705.280	1802.000
705.408	1768.753
705.537	1762.165
705.665	1760.897
705.793	1739.433
705.921	1755.515
706.049	1730.598
706.177	1716.289
706.305	1729.031
706.433	1719.041
706.562	1723.237
706.690	1708.320
706.818	1703.546
706.946	1691.907
707.074	1698.680
707.202	1684.093
707.330	1670.412
707.458	1686.835
707.587	1667.227
707.715	1674.649
707.843	1647.948
707.971	1652.979
708.099	1627.124
708.227	1637.629
708.355	1645.588
708.483	1632.979
708.612	1635.907
708.740	1621.876
708.868	1613.299
708.996	1614.113
709.124	1597.082
709.252	1607.041
709.380	1615.206
709.508	1577.351
709.637	1590.866
709.765	1577.474
709.893	1574.443
710.021	1584.856
710.149	1583.340
710.277	1567.918
710.405	1558.773
710.533	1558.216
710.662	1539.876
710.790	1555.794
710.918	1531.825
711.046	1545.990
711.174	1528.309
711.302	1534.907
711.430	1525.371
711.558	1536.649
711.687	1517.753
711.815	1504.856
711.943	1519.588
712.071	1512.948
712.199	1507.722
712.327	1507.845
712.455	1500.577
712.583	1505.144
712.712	1494.443
712.840	1490.082
712.968	1477.392
713.096	1476.825
713.224	1478.010
713.352	1468.165
713.480	1469.814
713.608	1462.701
713.737	1464.165
713.865	1453.175
713.993	1474.948
714.121	1465.794
714.249	1448.536
714.377	1463.309
714.505	1456.701
714.633	1452.680
714.762	1445.052
714.890	1435.227
715.018	1437.113
715.146	1444.165
715.274	1417.134
715.402	1424.299
715.530	1414.134
715.658	1409.402
715.787	1404.381
715.915	1409.670
716.043	1415.402
716.171	1396.062
716.299	1390.670
716.427	1401.763
716.555	1393.536
716.683	1388.608
716.812	1383.918
716.940	1384.969
717.068	1377.299
717.196	1377.165
717.324	1368.825
717.452	1363.515
717.580	1366.536
717.708	1356.814
717.837	1359.670
717.965	1350.433
718.093	1355.804
718.221	1338.897
718.349	1346.134
718.477	1345.928
718.605	1327.072
718.733	1334.907
718.862	1321.804
718.990	1322.113
719.118	1323.938
719.246	1314.959
719.374	1309.794
719.502	1309.866
719.630	1317.052
719.758	1306.660
719.887	1296.876
720.015	1285.515
720.143	1283.485
720.271	1279.742
720.399	1284.619
720.527	1277.897
720.655	1267.041
720.783	1267.247
720.912	1260.093
721.040	1257.289
721.168	1259.701
721.296	1255.794
721.424	1240.423
721.552	1255.052
721.680	1236.918
721.808	1241.412
721.937	1239.124
722.065	1233.711
722.193	1228.062
722.321	1229.454
722.449	1229.237
722.577	1220.134
722.705	1207.536
722.833	1219.124
722.962	1214.856
723.090	1216.979
723.218	1199.608
723.346	1200.629
723.474	1204.433
723.602	1185.041
723.730	1193.381
723.858	1183.990
723.987	1188.835
724.115	1186.732
724.243	1190.309
724.371	1167.196
724.499	1181.412
724.627	1162.938
724.755	1162.474
724.883	1160.629
725.012	1161.052
725.140	1153.113
725.268	1146.866
725.396	1130.722
725.524	1145.186
725.652	1123.309
725.780	1137.361
725.908	1131.619
726.037	1126.330
726.165	1123.082
726.293	1113.938
726.421	1120.206
726.549	1115.557
726.677	1109.010
726.805	1108.165
726.933	1099.959
727.062	1099.155
727.190	1104.845
727.318	1096.021
727.446	1097.639
727.574	1100.804
727.702	1084.041
727.830	1088.309
727.958	1081.134
728.087	1090.371
728.215	1072.567
728.343	1075.381
728.471	1067.680
728.599	1072.763
728.727	1067.464
728.855	1061.990
728.983	1067.258
729.112	1058.660
729.240	1049.990
729.368	1052.093
729.496	1038.887
729.624	1042.289
729.752	1050.299
729.880	1036.598
730.008	1043.918
730.137	1042.299
730.265	1043.979
730.393	1026.000
730.521	1032.515
730.649	1035.608
730.777	1037.433
730.905	1020.175
731.033	1024.247
731.162	1015.598
731.290	1029.299
731.418	1026.433
731.546	1016.268
731.674	1010.918
731.802	1011.041
731.930	1013.433
732.058	1000.103
732.187	1003.206
732.315	997.691
732.443	1005.660
732.571	1007.247
732.699	1000.103
732.827	996.041
732.955	999.402
733.083	996.969
733.212	1003.433
733.340	991.021
733.468	997.711
733.596	986.691
733.724	984.072
733.852	985.000
733.980	970.247
734.108	983.918
734.237	987.526
734.365	987.825
734.493	964.619
734.621	976.670
734.749	979.206
734.877	968.567
735.005	964.072
735.133	970.825
735.262	974.598
735.390	958.866
735.518	964.948
735.646	963.732
735.774	961.072
735.902	959.206
736.030	964.196
736.158	962.320
736.287	959.186
736.415	956.216
736.543	954.062
736.671	948.948
736.799	951.175
736.927	950.856
737.055	953.732
737.183	944.742
737.312	938.196
737.440	938.567
737.568	952.196
737.696	938.371
737.824	943.021
737.952	961.103
738.080	933.309
738.208	936.330
738.337	932.412
738.465	936.784
738.593	929.072
738.721	929.680
738.849	930.979
738.977	919.536
739.105	936.577
739.233	928.804
739.362	926.278
739.490	918.031
739.618	915.856
739.746	913.196
739.874	906.289
740.002	912.000
740.130	906.990
740.258	902.866
740.387	908.124
740.515	912.598
740.643	906.000
740.771	898.021
740.899	891.433
741.027	897.928
741.155	894.330
741.283	892.845
741.412	913.670
741.540	897.938
741.668	898.608
741.796	894.763
741.924	887.454
742.052	886.433
742.180	891.990
742.308	882.546
742.437	872.515
742.565	892.557
742.693	878.732
742.821	884.629
742.949	877.979
743.077	867.113
743.205	876.897
743.333	871.052
743.462	862.990
743.590	868.701
743.718	862.814
743.846	862.619
743.974	861.918
744.102	856.814
744.230	858.402
744.358	854.804
744.487	853.742
744.615	840.155
744.743	851.330
744.871	843.990
744.999	843.959
745.127	853.031
745.255	832.856
745.383	839.134
745.512	828.371
745.640	838.268
745.768	836.825
745.896	832.165
746.024	834.134
746.152	823.701
746.280	830.103
746.408	828.856
746.537	818.742
746.665	823.835
746.793	821.320
746.921	820.907
747.049	820.443
747.177	817.742
747.305	820.701
747.433	826.763
747.562	809.928
747.690	807.258
747.818	802.113
747.946	809.361
748.074	803.866
748.202	807.722
748.330	802.979
748.458	801.165
748.587	805.794
748.715	805.062
748.843	790.835
748.971	787.763
749.099	798.278
749.227	795.732
749.355	798.454
749.483	786.175
749.612	795.155
749.740	787.196
749.868	788.041
749.996	790.918
750.124	793.093
750.252	775.144
750.380	784.464
750.508	784.155
750.637	779.990
750.765	779.402
750.893	784.216
751.021	774.649
751.149	769.258
751.277	770.588
751.405	761.629
751.533	779.113
751.662	765.113
751.790	766.454
751.918	763.021
752.046	767.423
752.174	763.485
752.302	751.804
752.430	761.979
752.558	751.814
752.687	751.485
752.815	750.423
752.943	744.856
753.071	738.330
753.199	751.567
753.327	743.577
753.455	746.278
753.583	743.443
753.712	734.577
753.840	741.619
753.968	742.639
754.096	742.794
754.224	737.000
754.352	728.526
754.480	734.082
754.608	729.289
754.737	724.918
754.865	732.660
754.993	726.897
755.121	724.021
755.249	711.691
755.377	711.804
755.505	710.351
755.633	721.227
755.762	712.856
755.890	704.010
756.018	709.959
756.146	701.340
756.274	697.041
756.402	704.742
756.530	705.639
756.658	697.567
756.787	691.557
756.915	691.887
757.043	686.155
757.171	686.598
757.299	685.216
757.427	675.155
757.555	682.588
757.683	687.351
757.812	679.237
757.940	669.165
758.068	672.041
758.196	674.144
758.324	676.670
758.452	669.629
758.580	668.835
758.708	658.237
758.837	666.124
758.965	660.907
759.093	664.165
759.221	648.227
759.349	657.041
759.477	656.773
759.605	639.134
759.733	646.979
759.862	646.443
759.990	650.113
760.118	637.773
760.246	639.227
760.374	633.804
760.502	635.608
760.630	628.505
760.758	632.361
760.887	627.134
761.015	625.680
761.143	625.763
761.271	621.072
761.399	614.876
761.527	626.814
761.655	620.392
761.783	612.134
761.912	607.454
762.040	602.866
762.168	603.361
762.296	603.093
762.424	596.423
762.552	604.577
762.680	588.794
762.808	590.732
762.937	589.773
763.065	583.856
763.193	587.433
763.321	584.392
763.449	579.866
763.577	578.258
763.705	577.351
763.833	576.361
763.962	574.598
764.090	579.722
764.218	567.072
764.346	566.856
764.474	569.722
764.602	565.825
764.730	563.866
764.858	562.093
764.987	561.423
765.115	560.134
765.243	556.320
765.371	556.598
765.499	555.485
765.627	557.536
765.755	551.227
765.883	545.835
766.012	554.371
766.140	546.062
766.268	550.505
766.396	548.577
766.524	540.464
766.652	544.351
766.780	544.134
766.908	542.433
767.037	543.351
767.165	537.216
767.293	541.897
767.421	541.000
767.549	534.309
767.677	538.423
767.805	537.804
767.933	537.165
768.062	530.474
768.190	533.495
768.318	531.691
768.446	521.495
768.574	525.814
768.702	528.639
768.830	529.918
768.958	521.474
769.087	522.876
769.215	525.103
769.343	523.175
769.471	521.856
769.599	523.660
769.727	523.845
769.855	517.598
769.983	527.526
770.112	518.505
770.240	519.103
770.368	514.021
770.496	516.485
770.624	514.732
770.752	518.526
770.880	521.577
771.008	513.990
771.137	508.577
771.265	517.052
771.393	505.464
771.521	510.103
771.649	515.763
771.777	511.485
771.905	502.856
772.033	511.361
772.162	510.196
772.290	502.309
772.418	502.856
772.546	503.938
772.674	506.804
772.802	502.856
772.930	501.691
773.058	502.557
773.187	502.495
773.315	499.010
773.443	502.918
773.571	500.165
773.699	496.505
773.827	498.278
773.955	503.021
774.083	493.856
774.212	500.598
774.340	504.804
774.468	492.825
774.596	489.082
774.724	492.959
774.852	496.454
774.980	494.021
775.108	489.268
775.237	486.186
775.365	490.856
775.493	487.330
775.621	486.062
775.749	487.278
775.877	487.588
776.005	486.629
776.133	482.268
776.262	484.247
776.390	486.649
776.518	485.052
776.646	477.041
776.774	482.784
776.902	472.536
777.030	475.660
777.158	477.340
777.287	474.464
777.415	476.938
777.543	468.330
777.671	472.660
777.799	471.763
777.927	472.134
778.055	467.670
778.183	467.948
778.312	466.103
778.440	473.216
778.568	471.113
778.696	466.577
778.824	468.196
778.952	466.918
779.080	456.835
779.208	453.897
779.337	459.485
779.465	456.691
779.593	458.546
779.721	457.711
779.849	448.887
779.977	457.629
780.105	455.247
780.233	456.814
780.362	445.608
780.490	445.680
780.618	445.722
780.746	446.165
780.874	455.845
781.002	443.021
781.130	434.464
781.258	444.722
781.387	444.454
781.515	438.216
781.643	437.021
781.771	441.711
781.899	434.474
782.027	432.381
782.155	433.773
782.283	430.093
782.412	431.804
782.540	430.567
782.668	432.856
782.796	428.371
782.924	432.031
783.052	428.753
783.180	425.299
783.308	423.577
783.437	424.155
783.565	417.814
783.693	425.299
783.821	420.371
783.949	424.856
784.077	415.608
784.205	417.474
784.333	421.691
784.462	419.546
784.590	410.196
784.718	409.742
784.846	407.948
784.974	413.423
785.102	409.000
785.230	412.361
785.358	405.041
785.487	402.175
785.615	397.629
785.743	397.691
785.871	403.608
785.999	400.041
786.127	400.124
786.255	404.381
786.383	397.794
786.512	398.639
786.640	399.474
786.768	395.165
786.896	391.856
787.024	389.186
787.152	385.289
787.280	393.835
787.408	387.155
787.537	392.814
787.665	390.701
787.793	386.165
787.921	386.505
788.049	384.268
788.177	388.072
788.305	386.258
788.433	382.165
788.562	377.598
788.690	377.155
788.818	377.124
788.946	375.495
789.074	370.670
789.202	377.124
789.330	376.660
789.458	375.206
789.587	374.784
789.715	373.639
789.843	373.330
789.971	369.928
790.099	366.835
790.227	366.062
790.355	368.289
790.483	365.732
790.612	366.711
790.740	359.309
790.868	360.495
790.996	361.144
791.124	357.320
791.252	353.742
791.380	357.165
791.508	354.206
791.637	357.567
791.765	352.227
791.893	348.340
792.021	343.206
792.149	347.660
792.277	351.299
792.405	344.763
792.533	349.361
792.662	345.577
792.790	345.062
792.918	347.268
793.046	336.649
793.174	338.619
793.302	338.278
793.430	340.134
793.558	331.722
793.687	334.258
793.815	334.082
793.943	334.753
794.071	331.742
794.199	327.711
794.327	324.629
794.455	329.691
794.583	327.330
794.712	324.351
794.840	321.660
794.968	320.237
795.096	319.330
795.224	318.186
795.352	321.216
795.480	313.928
795.608	318.041
795.737	313.959
795.865	312.990
795.993	314.990
796.121	316.052
796.249	313.227
796.377	309.237
796.505	307.258
796.633	306.804
796.762	303.227
796.890	305.082
797.018	305.608
797.146	301.093
797.274	299.041
797.402	301.000
797.530	294.536
797.658	296.402
797.787	298.412
797.915	295.557
798.043	294.206
798.171	297.000
798.299	287.113
798.427	288.732
798.555	290.918
798.683	286.000
798.812	288.515
798.940	286.753
799.068	286.856
799.196	286.948
799.324	278.763
799.452	281.227
799.580	282.825
799.708	279.588
799.837	279.691
799.965	278.505
800.093	280.392
800.221	272.588
800.349	273.144
800.477	271.082
800.605	270.237
800.733	273.536
800.862	271.175
800.990	267.351
801.118	267.216
801.246	265.340
801.374	264.845
801.502	259.041
801.630	265.773
801.758	263.175
801.887	259.546
802.015	260.041
802.143	257.670
802.271	256.485
802.399	256.845
802.527	255.505
802.655	253.608
802.783	253.722
802.912	250.021
803.040	251.175
803.168	248.784
803.296	252.722
803.424	248.784
803.552	248.247
803.680	244.588
803.808	244.691
803.937	242.320
804.065	249.588
804.193	242.464
804.321	243.753
804.449	244.175
804.577	236.928
804.705	245.526
804.833	238.165
804.962	240.103
805.090	241.289
805.218	237.835
805.346	232.485
805.474	234.887
805.602	232.392
805.730	235.000
805.858	230.237
805.987	229.124
806.115	229.526
806.243	229.268
806.371	229.763
806.499	227.010
806.627	227.021
806.755	225.134
806.883	225.010
807.012	220.464
807.140	224.062
807.268	216.402
807.396	223.371
807.524	219.196
807.652	221.443
807.780	217.701
807.908	217.515
808.037	216.835
808.165	217.495
808.293	213.907
808.421	215.031
808.549	214.557
808.677	217.010
808.805	219.845
808.933	212.392
809.062	216.113
809.190	214.598
809.318	213.959
809.446	209.412
809.574	208.474
809.702	213.433
809.830	205.814
809.958	208.588
810.087	212.082
810.215	206.979
810.343	208.474
810.471	208.454
810.599	204.753
810.727	207.216
810.855	202.969
810.983	203.443
811.112	205.959
811.240	200.897
811.368	200.742
811.496	202.845
811.624	198.876
811.752	198.216
811.880	201.577
812.008	198.918
812.137	201.495
812.265	196.299
812.393	200.546
812.521	195.062
812.649	193.237
812.777	195.165
812.905	193.763
813.033	188.175
813.162	193.237
813.290	189.845
813.418	192.134
813.546	191.454
813.674	191.258
813.802	188.505
813.930	189.402
814.058	189.732
814.187	193.330
814.315	186.742
814.443	187.732
814.571	187.959
814.699	187.000
814.827	185.186
814.955	186.959
815.083	184.340
815.212	184.701
815.340	181.320
815.468	185.619
815.596	180.495
815.724	188.495
815.852	185.711
815.980	180.763
816.108	176.361
816.237	182.278
816.365	181.856
816.493	179.557
816.621	179.392
816.749	178.144
816.877	187.990
817.005	178.433
817.133	181.361
817.262	176.402
817.390	176.856
817.518	176.701
817.646	173.155
817.774	172.856
817.902	170.103
818.030	169.577
818.158	173.515
818.287	176.113
818.415	172.557
818.543	170.948
818.671	171.031
818.799	170.588
818.927	166.103
819.055	170.082
819.183	168.629
819.312	170.526
819.440	166.361
819.568	164.062
819.696	167.103
819.824	165.969
819.952	165.000
820.080	166.093
820.208	164.505
820.337	165.588
820.465	162.268
820.593	160.856
820.721	166.598
820.849	160.794
820.977	161.856
821.105	161.515
821.233	161.155
821.362	161.773
821.490	158.660
821.618	160.649
821.746	157.907
821.874	156.876
822.002	156.175
822.130	163.072
822.258	154.165
822.387	153.753
822.515	157.278
822.643	156.454
822.771	153.402
822.899	153.969
823.027	153.206
823.155	156.763
823.283	152.979
823.412	155.412
823.540	152.247
823.668	153.691
823.796	148.979
823.924	150.515
824.052	151.320
824.180	151.330
824.308	149.526
824.437	153.031
824.565	152.247
824.693	149.031
824.821	148.031
824.949	148.753
825.077	148.474
825.205	147.268
825.333	146.082
825.462	149.835
825.590	144.000
825.718	143.629
825.846	146.443
825.974	145.082
826.102	145.856
826.230	144.928
826.358	146.268
826.487	145.196
826.615	145.062
826.743	142.000
826.871	141.990
826.999	143.381
827.127	145.567
827.255	142.485
827.383	144.216
827.512	141.711
827.640	144.124
827.768	143.577
827.896	139.227
828.024	144.206
828.152	139.392
828.280	140.278
828.408	140.763
828.537	139.928
828.665	140.732
828.793	139.979
828.921	141.371
829.049	138.433
829.177	138.000
829.305	138.567
829.433	138.969
829.562	138.361
829.690	135.299
829.818	138.062
829.946	135.062
830.074	136.010
830.202	137.433
830.330	135.959
830.458	135.670
830.587	136.206
830.715	138.536
830.843	134.289
830.971	137.320
831.099	135.784
831.227	134.082
831.355	134.598
831.483	133.526
831.612	135.278
831.740	132.443
831.868	133.443
831.996	133.536
832.124	133.979
832.252	133.412
832.380	131.753
832.508	131.196
832.637	130.278
832.765	132.103
832.893	133.990
833.021	131.093
833.149	132.351
833.277	130.907
833.405	132.268
833.533	128.887
833.662	129.515
833.790	128.876
833.918	130.206
834.046	129.835
834.174	129.753
834.302	131.031
834.430	126.433
834.558	129.371
834.687	127.021
834.815	130.392
834.943	126.495
835.071	128.443
835.199	128.722
835.327	126.093
835.455	127.381
835.583	125.825
835.712	125.546
835.840	126.392
835.968	125.206
836.096	123.495
836.224	125.784
836.352	127.155
836.480	124.588
836.608	125.660
836.737	127.887
836.865	125.670
836.993	126.093
837.121	128.835
837.249	123.876
837.377	123.680
837.505	121.052
837.633	123.907
837.762	123.392
837.890	121.216
838.018	121.021
838.146	121.536
838.274	121.835
838.402	122.918
838.530	123.093
838.658	123.371
838.787	121.247
838.915	121.938
839.043	124.103
839.171	120.670
839.299	121.278
839.427	123.351
839.555	121.320
839.683	120.557
839.812	123.351
839.940	120.392
840.068	123.299
840.196	121.918
840.324	120.299
840.452	120.423
840.580	120.361
840.708	121.969
840.837	119.876
840.965	120.113
841.093	117.268
841.221	118.392
841.349	119.845
841.477	118.907
841.605	119.289
841.733	118.557
841.862	120.948
841.990	119.443
842.118	119.804
842.246	119.113
842.374	116.515
842.502	118.567
842.630	117.897
842.758	116.000
842.887	118.052
843.015	117.485
843.143	116.515
843.271	118.216
843.399	117.495
843.527	118.010
843.655	116.134
843.783	116.546
843.912	115.206
844.040	115.237
844.168	117.103
844.296	117.845
844.424	115.402
844.552	116.649
844.680	117.526
844.808	114.381
844.937	113.423
845.065	114.856
845.193	116.814
845.321	116.268
845.449	117.175
845.577	114.680
845.705	115.371
845.833	113.670
845.962	115.948
846.090	114.845
846.218	114.876
846.346	115.268
846.474	113.938
846.602	112.113
846.730	111.691
846.858	113.526
846.987	111.670
847.115	112.598
847.243	112.124
847.371	113.784
847.499	110.381
847.627	112.340
847.755	112.794
847.883	111.247
848.012	111.711
848.140	111.825
848.268	111.371
848.396	111.206
848.524	113.763
848.652	113.103
848.780	110.351
848.908	111.598
849.037	109.371
849.165	109.897
849.293	110.897
849.421	111.144
849.549	111.052
849.677	110.701
849.805	111.825
849.933	110.938
850.062	113.526
850.190	109.969
850.318	110.351
850.446	109.598
850.574	112.299
850.702	110.887
850.830	110.948
850.958	110.938
851.087	111.897
851.215	111.464
851.343	109.371
851.471	109.701
851.599	109.732
851.727	110.165
851.855	111.268
851.983	110.526
852.112	110.289
852.240	110.072
852.368	109.309
852.496	108.515
852.624	108.804
852.752	110.402
852.880	111.124
853.008	109.835
853.137	108.608
853.265	107.804
853.393	107.093
853.521	108.918
853.649	108.258
853.777	110.526
853.905	109.216
854.033	109.309
854.162	109.753
854.290	109.464
854.418	109.897
854.546	107.722
854.674	109.062
854.802	108.381
854.930	106.753
855.058	107.907
855.187	109.804
855.315	108.392
855.443	108.701
855.571	108.629
855.699	109.175
855.827	106.454
855.955	108.959
856.083	109.093
856.212	108.454
856.340	107.485
856.468	108.928
856.596	108.536
856.724	109.062
856.852	107.258
856.980	107.062
857.108	108.227
857.237	106.711
857.365	106.495
857.493	108.289
857.621	106.588
857.749	107.082
857.877	106.660
858.005	106.196
858.133	106.021
858.262	105.515
858.390	107.670
858.518	108.103
858.646	107.876
858.774	106.567
858.902	107.186
859.030	109.649
859.158	108.577
859.287	106.082
859.415	105.082
859.543	107.485
859.671	106.608
859.799	106.216
859.927	105.515
860.055	106.866
860.183	106.928
860.312	106.608
860.440	105.433
860.568	105.784
860.696	104.845
860.824	107.072
860.952	107.515
861.080	107.113
861.208	107.474
861.337	106.948
861.465	106.000
861.593	106.918
861.721	107.423
861.849	105.505
861.977	107.505
862.105	106.773
862.233	107.392
862.362	105.320
862.490	105.062
862.618	104.804
862.746	105.887
862.874	106.856
863.002	106.278
863.130	106.959
863.258	106.402
863.387	105.732
863.515	105.010
863.643	106.031
863.771	106.082
863.899	105.948
864.027	106.196
864.155	105.928
864.283	106.227
864.412	105.959
864.540	105.825
864.668	104.876
864.796	105.619
864.924	104.567
865.052	106.938
865.180	107.546
865.308	105.412
865.437	105.289
865.565	105.856
865.693	105.052
865.821	105.144
865.949	106.072
866.077	108.196
866.205	106.454
866.333	106.186
866.462	104.031
866.590	105.639
866.718	106.454
866.846	106.969
866.974	106.278
867.102	104.722
867.230	106.639
867.358	106.608
867.487	105.351
867.615	104.454
867.743	104.773
867.871	105.082
867.999	106.093
868.127	104.021
868.255	104.495
868.383	105.082
868.512	105.660
868.640	103.928
868.768	104.753
868.896	104.330
869.024	104.866
869.152	104.320
869.280	104.732
869.408	103.814
869.537	104.856
869.665	104.856
869.793	106.608
869.921	104.649
870.049	105.897
870.177	104.732
870.305	103.412
870.433	104.268
870.562	104.979
870.690	102.567
870.818	105.392
870.946	104.124
871.074	104.082
871.202	104.969
871.330	103.021
871.458	105.258
871.587	104.938
871.715	104.784
871.843	103.928
871.971	103.948
872.099	103.320
872.227	104.361
872.355	104.495
872.483	104.423
872.612	104.918
872.740	103.433
872.868	103.392
872.996	103.660
873.124	103.505
873.252	105.392
873.380	104.649
873.508	104.258
873.637	104.670
873.765	103.629
873.893	103.990
874.021	105.134
874.149	104.835
874.277	104.722
874.405	104.639
874.533	103.619
874.662	104.825
874.790	104.371
874.918	102.835
875.046	103.144
875.174	103.103
875.302	104.784
875.430	104.979
875.558	103.887
875.687	104.247
875.815	106.082
875.943	103.928
876.071	104.567
876.199	104.753
876.327	103.052
876.455	105.186
876.583	103.175
876.712	103.784
876.840	104.278
876.968	103.938
877.096	103.732
877.224	103.866
877.352	104.464
877.480	103.289
877.608	103.856
877.737	103.938
877.865	103.928
877.993	102.814
878.121	103.701
878.249	103.835
878.377	103.835
878.505	102.660
878.633	103.722
878.762	104.320
878.890	102.361
879.018	103.588
879.146	104.134
879.274	103.866
879.402	103.918
879.530	103.402
879.658	102.753
879.787	103.144
879.915	103.392
880.043	104.361
880.171	104.268
880.299	105.753
880.427	104.206
880.555	103.206
880.683	105.392
880.812	103.660
880.940	103.258
881.068	104.330
881.196	103.784
881.324	104.093
881.452	103.732
881.580	103.814
881.708	104.062
881.837	103.711
881.965	102.536
882.093	103.649
882.221	103.794
882.349	102.804
882.477	103.948
882.605	104.309
882.733	103.464
882.862	103.773
882.990	106.320
883.118	105.454
883.246	105.887
883.374	103.247
883.502	102.598
883.630	104.237
883.758	103.711
883.887	103.495
884.015	104.206
884.143	103.742
884.271	103.443
884.399	103.546
884.527	103.351
884.655	104.124
884.783	103.237
884.912	103.124
885.040	104.072
885.168	103.701
885.296	103.639
885.424	104.979
885.552	104.918
885.680	104.443
885.808	102.825
885.937	103.825
886.065	103.186
886.193	102.010
886.321	103.629
886.449	102.979
886.577	103.021
886.705	102.691
886.833	103.794
886.962	103.794
887.090	103.588
887.218	103.072
887.346	103.567
887.474	102.505
887.602	102.742
887.730	102.732
887.858	103.515
887.987	104.041
888.115	103.320
888.243	102.536
888.371	102.948
888.499	104.907
888.627	104.577
888.755	104.062
888.883	105.340
889.012	104.247
889.140	103.691
889.268	101.722
889.396	103.711
889.524	104.289
889.652	101.619
889.780	103.062
889.908	102.041
890.037	103.577
890.165	103.330
890.293	101.577
890.421	102.897
890.549	103.330
890.677	102.268
890.805	103.278
890.933	102.907
891.062	103.887
891.190	104.495
891.318	103.113
891.446	102.897
891.574	103.165
891.702	101.608
891.830	101.907
891.958	103.144
892.087	102.103
892.215	103.052
892.343	103.856
892.471	103.660
892.599	104.340
892.727	103.031
892.855	103.423
892.983	102.948
893.112	102.814
893.240	103.371
893.368	102.629
893.496	102.443
893.624	101.979
893.752	102.093
893.880	102.299
894.008	102.000
894.137	102.144
894.265	103.371
894.393	103.041
894.521	102.021
894.649	103.309
894.777	103.784
894.905	103.557
895.033	104.577
895.162	103.907
895.290	104.433
895.418	104.804
895.546	104.546
895.674	104.814
895.802	102.835
895.930	104.134
896.058	104.216
896.187	103.598
896.315	105.485
896.443	102.938
896.571	104.206
896.699	104.155
896.827	102.495
896.955	102.433
897.083	102.794
897.212	103.990
897.340	102.588
897.468	101.237
897.596	103.856
897.724	101.227
897.852	103.392
897.980	102.649
898.108	102.515
898.237	103.536
898.365	104.835
898.493	104.144
898.621	102.351
898.749	102.918
898.877	101.990
899.005	103.505
899.133	103.227
899.262	103.072
899.390	103.268
899.518	102.835
899.646	103.876
899.774	102.814
899.902	101.619
900.030	104.309
900.158	103.299
900.287	102.412
900.415	102.433
900.543	102.546
900.671	104.515
900.799	102.691
900.927	103.814
901.055	103.485
901.183	104.485
901.312	104.546
901.440	101.474
901.568	102.856
901.696	101.990
901.824	102.515
901.952	101.948
902.080	103.660
902.208	103.309
902.337	102.784
902.465	101.557
902.593	102.175
902.721	102.866
902.849	103.423
902.977	102.546
903.105	103.278
903.233	102.052
903.362	102.722
903.490	101.629
903.618	101.722
903.746	100.722
903.874	103.588
904.002	105.113
904.130	104.794
904.258	103.392
904.387	103.247
904.515	102.000
904.643	102.340
904.771	102.928
904.899	103.216
905.027	103.691
905.155	102.763
905.283	102.619
905.412	103.515
905.540	101.330
905.668	101.959
905.796	102.247
905.924	102.505
906.052	102.546
906.180	103.144
906.308	102.897
906.437	101.639
906.565	102.546
906.693	103.031
906.821	103.041
906.949	103.134
907.077	100.691
907.205	102.124
907.333	102.247
907.462	103.392
907.590	101.247
907.718	101.670
907.846	102.227
907.974	102.124
908.102	102.299
908.230	101.701
908.358	100.237
908.487	100.660
908.615	102.134
908.743	102.784
908.871	102.557
908.999	102.124
909.127	102.124
909.255	103.000
909.383	103.876
909.512	102.031
909.640	102.887
909.768	103.588
909.896	103.907
910.024	103.052
910.152	104.082
910.280	103.103
910.408	101.134
910.537	101.959
910.665	101.381
910.793	101.351
910.921	101.794
911.049	101.351
911.177	102.856
911.305	102.969
911.433	103.423
911.562	103.526
911.690	103.124
911.818	102.041
911.946	102.546
912.074	102.155
912.202	102.526
912.330	101.639
912.458	102.227
912.587	103.526
912.715	102.928
912.843	102.835
912.971	104.701
913.099	103.804
913.227	103.423
913.355	103.010
913.483	102.474
913.612	103.392
913.740	103.299
913.868	103.557
