whiteh_at_750.00nm_cut_at_1060.50Y_01.dat
19.06.2023
11:25:20
cut middle at Y: 1060.50
top cursor: 1109 down cursor: 1012 mean of: 97 lines , 2560 datapoints
wavelength(nm)	intensity[arb. units]
585.996	720.381
586.124	699.660
586.252	696.804
586.380	700.670
586.508	703.062
586.637	698.082
586.765	704.598
586.893	695.237
587.021	712.711
587.149	706.134
587.277	708.598
587.405	708.567
587.533	706.680
587.662	715.577
587.790	716.186
587.918	711.526
588.046	715.835
588.174	715.866
588.302	722.247
588.430	715.237
588.558	717.320
588.687	720.155
588.815	728.093
588.943	731.670
589.071	718.691
589.199	724.361
589.327	727.402
589.455	723.021
589.583	720.196
589.712	724.258
589.840	729.206
589.968	732.258
590.096	729.423
590.224	738.196
590.352	729.835
590.480	727.330
590.608	736.485
590.737	733.804
590.865	734.144
590.993	740.433
591.121	731.144
591.249	736.526
591.377	739.031
591.505	737.144
591.633	735.330
591.762	742.433
591.890	743.742
592.018	742.629
592.146	731.402
592.274	746.206
592.402	739.423
592.530	735.175
592.658	745.979
592.787	738.072
592.915	744.330
593.043	741.629
593.171	742.072
593.299	751.928
593.427	744.608
593.555	745.701
593.683	738.464
593.812	743.113
593.940	751.155
594.068	744.505
594.196	748.155
594.324	743.485
594.452	758.144
594.580	758.371
594.708	750.134
594.837	758.072
594.965	753.979
595.093	751.351
595.221	754.948
595.349	760.918
595.477	759.784
595.605	752.351
595.733	767.680
595.862	763.433
595.990	756.598
596.118	757.289
596.246	767.052
596.374	754.876
596.502	765.113
596.630	762.938
596.758	766.278
596.887	770.763
597.015	775.124
597.143	762.577
597.271	761.598
597.399	769.031
597.527	772.918
597.655	778.216
597.783	775.052
597.912	765.701
598.040	774.278
598.168	775.227
598.296	769.938
598.424	767.897
598.552	774.361
598.680	767.340
598.808	770.062
598.937	786.361
599.065	776.340
599.193	775.165
599.321	767.680
599.449	769.897
599.577	772.557
599.705	773.278
599.833	774.505
599.962	769.691
600.090	774.722
600.218	770.711
600.346	774.990
600.474	770.103
600.602	775.876
600.730	768.227
600.858	773.206
600.987	776.289
601.115	776.866
601.243	775.577
601.371	772.742
601.499	777.938
601.627	784.711
601.755	779.649
601.883	777.309
602.012	789.763
602.140	784.443
602.268	785.031
602.396	785.258
602.524	791.196
602.652	788.381
602.780	791.454
602.908	786.515
603.037	792.082
603.165	794.938
603.293	802.629
603.421	797.186
603.549	798.567
603.677	804.495
603.805	798.835
603.933	808.165
604.062	797.691
604.190	811.454
604.318	810.794
604.446	808.887
604.574	811.691
604.702	807.278
604.830	815.856
604.958	818.701
605.087	818.598
605.215	821.722
605.343	823.412
605.471	829.577
605.599	820.505
605.727	827.804
605.855	825.577
605.983	821.845
606.112	835.598
606.240	837.392
606.368	832.753
606.496	839.495
606.624	828.072
606.752	829.309
606.880	831.557
607.008	833.474
607.137	838.649
607.265	831.258
607.393	841.969
607.521	835.237
607.649	831.876
607.777	837.794
607.905	831.814
608.033	842.495
608.162	837.423
608.290	832.711
608.418	837.000
608.546	832.072
608.674	839.258
608.802	828.814
608.930	840.732
609.058	838.784
609.187	838.918
609.315	835.969
609.443	833.887
609.571	838.773
609.699	831.361
609.827	839.969
609.955	836.247
610.083	822.526
610.212	833.289
610.340	828.113
610.468	830.670
610.596	833.206
610.724	827.680
610.852	829.402
610.980	839.505
611.108	835.320
611.237	832.423
611.365	834.732
611.493	835.495
611.621	841.845
611.749	830.732
611.877	835.619
612.005	836.814
612.133	837.856
612.262	839.536
612.390	843.639
612.518	833.392
612.646	837.887
612.774	843.103
612.902	844.485
613.030	841.804
613.158	848.474
613.287	846.701
613.415	850.330
613.543	847.619
613.671	852.907
613.799	850.278
613.927	852.433
614.055	849.948
614.183	850.474
614.312	848.072
614.440	849.299
614.568	853.567
614.696	868.031
614.824	863.134
614.952	851.165
615.080	861.247
615.208	866.062
615.337	873.268
615.465	852.722
615.593	858.454
615.721	865.216
615.849	861.485
615.977	864.134
616.105	858.557
616.233	859.639
616.362	869.021
616.490	857.784
616.618	877.175
616.746	868.082
616.874	871.928
617.002	874.000
617.130	869.186
617.258	855.268
617.387	863.814
617.515	868.505
617.643	871.330
617.771	870.495
617.899	865.299
618.027	863.722
618.155	870.526
618.283	870.515
618.412	867.423
618.540	871.835
618.668	872.485
618.796	864.567
618.924	875.062
619.052	866.052
619.180	873.330
619.308	876.412
619.437	861.753
619.565	881.000
619.693	863.351
619.821	870.216
619.949	872.856
620.077	865.680
620.205	871.113
620.333	876.031
620.462	883.062
620.590	872.701
620.718	873.649
620.846	871.670
620.974	883.856
621.102	867.680
621.230	878.969
621.358	874.361
621.487	875.948
621.615	874.433
621.743	875.794
621.871	879.742
621.999	874.897
622.127	877.474
622.255	872.361
622.383	878.608
622.512	876.134
622.640	879.918
622.768	870.464
622.896	871.928
623.024	866.103
623.152	879.794
623.280	877.979
623.408	882.144
623.537	878.856
623.665	877.876
623.793	878.495
623.921	874.144
624.049	873.278
624.177	875.155
624.305	873.093
624.433	880.825
624.562	867.289
624.690	869.928
624.818	867.165
624.946	871.474
625.074	869.784
625.202	879.753
625.330	871.361
625.458	870.196
625.587	877.887
625.715	876.258
625.843	879.515
625.971	863.619
626.099	869.876
626.227	873.041
626.355	867.495
626.483	878.062
626.612	869.990
626.740	864.918
626.868	871.330
626.996	864.082
627.124	868.680
627.252	856.557
627.380	863.340
627.508	862.433
627.637	860.948
627.765	865.155
627.893	869.928
628.021	856.072
628.149	859.969
628.277	868.113
628.405	871.680
628.533	860.320
628.662	863.443
628.790	864.258
628.918	866.804
629.046	863.536
629.174	860.196
629.302	862.856
629.430	865.124
629.558	860.072
629.687	866.216
629.815	867.784
629.943	864.866
630.071	865.423
630.199	869.103
630.327	857.351
630.455	863.278
630.583	866.990
630.712	862.392
630.840	864.454
630.968	869.031
631.096	874.371
631.224	862.165
631.352	866.577
631.480	862.320
631.608	871.814
631.737	863.309
631.865	870.278
631.993	861.639
632.121	862.691
632.249	862.598
632.377	865.268
632.505	858.742
632.633	857.216
632.762	862.608
632.890	864.402
633.018	856.237
633.146	860.309
633.274	849.536
633.402	854.052
633.530	850.598
633.658	863.608
633.787	852.052
633.915	853.495
634.043	852.577
634.171	844.381
634.299	858.835
634.427	852.093
634.555	853.041
634.683	848.567
634.812	845.082
634.940	849.454
635.068	847.041
635.196	853.113
635.324	849.649
635.452	845.093
635.580	845.639
635.708	834.062
635.837	837.010
635.965	846.196
636.093	837.990
636.221	833.340
636.349	828.423
636.477	829.423
636.605	835.052
636.733	832.237
636.862	827.155
636.990	824.608
637.118	823.052
637.246	823.763
637.374	822.237
637.502	812.722
637.630	820.701
637.758	817.897
637.887	820.474
638.015	814.619
638.143	815.845
638.271	813.485
638.399	812.155
638.527	804.794
638.655	810.454
638.783	811.515
638.912	805.763
639.040	801.845
639.168	805.505
639.296	806.474
639.424	807.649
639.552	797.454
639.680	792.371
639.808	796.990
639.937	790.402
640.065	803.753
640.193	802.753
640.321	789.495
640.449	792.804
640.577	795.289
640.705	789.567
640.833	789.979
640.962	798.464
641.090	785.608
641.218	793.753
641.346	779.577
641.474	780.897
641.602	783.371
641.730	795.289
641.858	784.598
641.987	792.680
642.115	790.567
642.243	779.351
642.371	789.021
642.499	781.216
642.627	785.567
642.755	783.515
642.883	779.897
643.012	775.309
643.140	783.247
643.268	781.361
643.396	779.227
643.524	790.784
643.652	788.340
643.780	776.000
643.908	776.464
644.037	779.392
644.165	776.639
644.293	779.423
644.421	776.031
644.549	782.103
644.677	783.103
644.805	771.144
644.933	770.412
645.062	772.588
645.190	768.577
645.318	769.330
645.446	773.876
645.574	771.856
645.702	779.381
645.830	774.577
645.958	776.856
646.087	769.175
646.215	772.887
646.343	775.990
646.471	770.113
646.599	766.701
646.727	768.557
646.855	761.289
646.983	772.093
647.112	764.753
647.240	765.320
647.368	758.021
647.496	768.557
647.624	761.845
647.752	753.505
647.880	756.577
648.008	759.639
648.137	754.072
648.265	750.742
648.393	747.268
648.521	754.392
648.649	754.175
648.777	744.309
648.905	750.536
649.033	737.866
649.162	744.124
649.290	743.464
649.418	732.773
649.546	738.423
649.674	745.330
649.802	739.711
649.930	742.938
650.058	732.845
650.187	738.742
650.315	741.052
650.443	725.433
650.571	730.062
650.699	723.062
650.827	735.619
650.955	729.825
651.083	729.907
651.212	728.423
651.340	721.680
651.468	713.948
651.596	722.000
651.724	725.814
651.852	709.701
651.980	722.804
652.108	723.773
652.237	718.773
652.365	712.588
652.493	720.794
652.621	704.948
652.749	715.639
652.877	707.588
653.005	707.454
653.133	713.979
653.262	709.464
653.390	706.557
653.518	704.206
653.646	708.742
653.774	703.392
653.902	706.608
654.030	702.186
654.158	696.670
654.287	687.433
654.415	691.134
654.543	695.938
654.671	690.680
654.799	687.701
654.927	695.103
655.055	694.113
655.183	679.814
655.312	680.175
655.440	686.948
655.568	682.495
655.696	684.711
655.824	684.227
655.952	681.990
656.080	676.649
656.208	681.711
656.337	675.443
656.465	681.959
656.593	675.794
656.721	668.732
656.849	669.711
656.977	669.515
657.105	665.526
657.233	667.258
657.362	663.938
657.490	664.392
657.618	658.412
657.746	661.268
657.874	654.278
658.002	653.907
658.130	654.227
658.258	663.680
658.387	655.680
658.515	651.876
658.643	643.938
658.771	645.237
658.899	649.464
659.027	648.474
659.155	650.680
659.283	640.557
659.412	642.928
659.540	641.629
659.668	646.990
659.796	642.639
659.924	643.072
660.052	635.990
660.180	637.773
660.308	643.320
660.437	634.227
660.565	633.619
660.693	639.660
660.821	635.381
660.949	637.402
661.077	627.247
661.205	632.165
661.333	626.309
661.462	630.990
661.590	634.990
661.718	623.588
661.846	624.485
661.974	622.619
662.102	621.660
662.230	622.237
662.358	623.856
662.487	617.474
662.615	617.454
662.743	611.567
662.871	620.433
662.999	618.938
663.127	616.062
663.255	619.979
663.383	616.124
663.512	610.969
663.640	615.608
663.768	612.412
663.896	608.526
664.024	608.144
664.152	605.454
664.280	606.000
664.408	608.412
664.537	611.041
664.665	603.454
664.793	604.000
664.921	601.577
665.049	602.794
665.177	604.598
665.305	598.206
665.433	601.124
665.562	601.134
665.690	607.474
665.818	594.546
665.946	595.928
666.074	594.278
666.202	591.948
666.330	598.546
666.458	595.763
666.587	586.742
666.715	594.804
666.843	593.526
666.971	591.557
667.099	590.938
667.227	591.206
667.355	586.845
667.483	587.237
667.612	579.928
667.740	580.175
667.868	583.412
667.996	578.907
668.124	582.773
668.252	581.691
668.380	571.041
668.508	582.072
668.637	571.825
668.765	571.546
668.893	572.784
669.021	578.515
669.149	567.041
669.277	571.454
669.405	571.196
669.533	569.608
669.662	567.289
669.790	560.763
669.918	565.237
670.046	562.278
670.174	554.722
670.302	561.433
670.430	555.948
670.558	554.464
670.687	556.196
670.815	551.619
670.943	555.381
671.071	550.186
671.199	554.845
671.327	549.237
671.455	549.361
671.583	548.041
671.712	542.010
671.840	546.979
671.968	543.010
672.096	539.711
672.224	541.072
672.352	542.289
672.480	541.773
672.608	537.897
672.737	536.464
672.865	532.247
672.993	537.649
673.121	532.031
673.249	525.649
673.377	527.093
673.505	527.969
673.633	516.588
673.762	516.113
673.890	521.186
674.018	527.165
674.146	516.660
674.274	521.052
674.402	513.866
674.530	513.938
674.658	519.423
674.787	509.969
674.915	517.526
675.043	510.825
675.171	504.289
675.299	505.753
675.427	508.990
675.555	505.010
675.683	502.237
675.812	498.557
675.940	500.515
676.068	505.856
676.196	494.711
676.324	499.526
676.452	495.423
676.580	496.990
676.708	490.113
676.837	493.196
676.965	489.856
677.093	491.907
677.221	489.330
677.349	483.031
677.477	489.722
677.605	482.536
677.733	482.433
677.862	480.082
677.990	478.732
678.118	485.464
678.246	469.351
678.374	474.155
678.502	479.237
678.630	465.598
678.758	473.247
678.887	473.557
679.015	476.546
679.143	465.928
679.271	465.608
679.399	465.062
679.527	464.309
679.655	462.021
679.783	464.485
679.912	456.082
680.040	461.371
680.168	460.557
680.296	456.474
680.424	460.392
680.552	454.000
680.680	457.381
680.808	457.412
680.937	453.433
681.065	455.454
681.193	449.598
681.321	454.268
681.449	449.722
681.577	443.237
681.705	442.804
681.833	443.134
681.962	450.938
682.090	445.454
682.218	440.918
682.346	442.979
682.474	436.412
682.602	447.062
682.730	442.845
682.858	438.660
682.987	438.619
683.115	432.928
683.243	436.247
683.371	434.278
683.499	428.381
683.627	437.546
683.755	428.175
683.883	433.856
684.012	429.278
684.140	427.876
684.268	420.835
684.396	424.165
684.524	427.340
684.652	425.928
684.780	430.773
684.908	422.732
685.037	422.299
685.165	421.701
685.293	422.330
685.421	419.381
685.549	424.979
685.677	424.474
685.805	414.072
685.933	421.619
686.062	413.278
686.190	418.247
686.318	419.711
686.446	416.546
686.574	415.588
686.702	415.237
686.830	415.216
686.958	415.598
687.087	415.948
687.215	410.000
687.343	411.031
687.471	409.010
687.599	414.876
687.727	410.062
687.855	408.268
687.983	417.052
688.112	405.794
688.240	411.660
688.368	405.732
688.496	406.660
688.624	407.629
688.752	404.546
688.880	405.340
689.008	405.010
689.137	408.526
689.265	398.691
689.393	397.691
689.521	400.454
689.649	399.876
689.777	398.814
689.905	397.825
690.033	396.227
690.162	394.969
690.290	392.526
690.418	387.351
690.546	392.814
690.674	392.165
690.802	390.876
690.930	393.227
691.058	388.381
691.187	383.010
691.315	387.660
691.443	386.351
691.571	384.454
691.699	379.959
691.827	380.515
691.955	381.639
692.083	381.289
692.212	379.330
692.340	379.186
692.468	374.258
692.596	376.010
692.724	372.969
692.852	370.062
692.980	373.031
693.108	372.866
693.237	371.216
693.365	368.753
693.493	368.299
693.621	369.155
693.749	366.577
693.877	362.732
694.005	361.918
694.133	365.041
694.262	361.938
694.390	359.485
694.518	355.660
694.646	356.691
694.774	363.330
694.902	358.742
695.030	359.701
695.158	356.072
695.287	353.144
695.415	351.340
695.543	353.443
695.671	352.351
695.799	349.887
695.927	350.464
696.055	349.773
696.183	349.175
696.312	345.381
696.440	344.062
696.568	343.196
696.696	344.052
696.824	340.763
696.952	344.845
697.080	334.278
697.208	345.495
697.337	341.495
697.465	342.062
697.593	342.464
697.721	341.897
697.849	340.866
697.977	336.763
698.105	336.320
698.233	338.918
698.362	332.639
698.490	336.619
698.618	331.753
698.746	331.433
698.874	330.536
699.002	337.629
699.130	329.536
699.258	328.588
699.387	323.670
699.515	328.629
699.643	326.742
699.771	325.113
699.899	328.041
700.027	325.948
700.155	318.907
700.283	324.258
700.412	319.835
700.540	322.722
700.668	322.165
700.796	316.381
700.924	312.041
701.052	317.711
701.180	319.722
701.308	319.732
701.437	316.278
701.565	310.216
701.693	309.454
701.821	310.722
701.949	311.299
702.077	308.000
702.205	312.464
702.333	304.577
702.462	306.742
702.590	306.124
702.718	304.948
702.846	303.722
702.974	303.897
703.102	301.918
703.230	302.814
703.358	296.113
703.487	301.918
703.615	299.969
703.743	293.969
703.871	300.577
703.999	294.526
704.127	297.093
704.255	290.619
704.383	290.979
704.512	289.299
704.640	289.392
704.768	287.237
704.896	286.103
705.024	283.629
705.152	287.722
705.280	287.948
705.408	285.845
705.537	283.412
705.665	287.062
705.793	281.000
705.921	281.670
706.049	280.680
706.177	279.959
706.305	284.402
706.433	279.711
706.562	275.052
706.690	276.052
706.818	271.588
706.946	274.423
707.074	273.052
707.202	268.093
707.330	269.392
707.458	265.763
707.587	269.320
707.715	269.845
707.843	262.639
707.971	261.856
708.099	270.495
708.227	268.103
708.355	264.474
708.483	256.268
708.612	263.144
708.740	262.299
708.868	258.289
708.996	256.918
709.124	260.557
709.252	254.495
709.380	259.320
709.508	256.619
709.637	255.371
709.765	257.340
709.893	251.186
710.021	253.784
710.149	250.072
710.277	257.216
710.405	250.474
710.533	249.320
710.662	249.907
710.790	248.206
710.918	249.804
711.046	249.773
711.174	250.186
711.302	250.237
711.430	250.835
711.558	246.443
711.687	249.247
711.815	243.907
711.943	247.144
712.071	242.144
712.199	245.041
712.327	246.103
712.455	242.124
712.583	245.144
712.712	243.526
712.840	245.433
712.968	237.299
713.096	244.691
713.224	238.845
713.352	238.969
713.480	240.629
713.608	239.443
713.737	239.175
713.865	235.639
713.993	238.423
714.121	234.423
714.249	236.021
714.377	233.701
714.505	241.258
714.633	230.918
714.762	233.629
714.890	233.907
715.018	232.351
715.146	230.474
715.274	232.680
715.402	231.866
715.530	231.814
715.658	223.897
715.787	230.505
715.915	230.247
716.043	234.753
716.171	231.918
716.299	227.670
716.427	226.732
716.555	229.412
716.683	227.247
716.812	225.227
716.940	230.845
717.068	221.526
717.196	223.670
717.324	220.495
717.452	221.918
717.580	219.320
717.708	221.031
717.837	217.412
717.965	217.969
718.093	219.340
718.221	217.454
718.349	222.814
718.477	220.072
718.605	215.928
718.733	216.392
718.862	217.278
718.990	214.660
719.118	213.845
719.246	213.897
719.374	215.021
719.502	212.464
719.630	216.041
719.758	213.557
719.887	215.247
720.015	214.691
720.143	211.990
720.271	211.629
720.399	210.505
720.527	210.103
720.655	208.402
720.783	211.155
720.912	207.278
721.040	206.825
721.168	211.206
721.296	205.227
721.424	204.268
721.552	207.454
721.680	204.526
721.808	203.433
721.937	205.938
722.065	202.392
722.193	200.990
722.321	201.959
722.449	199.423
722.577	203.948
722.705	198.052
722.833	201.907
722.962	196.959
723.090	197.887
723.218	196.691
723.346	197.660
723.474	199.412
723.602	197.577
723.730	194.887
723.858	197.639
723.987	193.361
724.115	194.010
724.243	194.835
724.371	192.969
724.499	193.247
724.627	190.845
724.755	193.546
724.883	193.835
725.012	192.237
725.140	188.907
725.268	194.113
725.396	190.649
725.524	189.041
725.652	191.711
725.780	187.412
725.908	187.258
726.037	186.309
726.165	183.464
726.293	184.268
726.421	186.680
726.549	186.887
726.677	187.742
726.805	183.753
726.933	186.247
727.062	183.742
727.190	181.649
727.318	181.814
727.446	183.814
727.574	183.227
727.702	178.763
727.830	184.186
727.958	185.588
728.087	181.526
728.215	179.227
728.343	181.402
728.471	180.546
728.599	177.340
728.727	179.928
728.855	178.464
728.983	178.814
729.112	179.835
729.240	176.361
729.368	178.010
729.496	181.433
729.624	176.814
729.752	178.072
729.880	175.309
730.008	181.278
730.137	170.649
730.265	174.742
730.393	174.526
730.521	172.361
730.649	175.536
730.777	170.299
730.905	172.701
731.033	171.732
731.162	174.155
731.290	169.814
731.418	173.763
731.546	172.588
731.674	172.000
731.802	172.103
731.930	168.670
732.058	169.701
732.187	172.237
732.315	171.124
732.443	171.000
732.571	168.598
732.699	167.959
732.827	168.629
732.955	167.557
733.083	167.278
733.212	166.536
733.340	166.371
733.468	170.392
733.596	165.474
733.724	165.330
733.852	168.196
733.980	162.794
734.108	167.546
734.237	165.887
734.365	164.216
734.493	165.268
734.621	169.567
734.749	166.443
734.877	159.680
735.005	168.206
735.133	162.598
735.262	164.010
735.390	163.144
735.518	162.371
735.646	160.897
735.774	165.897
735.902	162.216
736.030	164.619
736.158	159.990
736.287	159.505
736.415	159.495
736.543	161.021
736.671	161.392
736.799	161.175
736.927	157.938
737.055	160.247
737.183	158.794
737.312	161.289
737.440	160.144
737.568	161.330
737.696	160.299
737.824	161.567
737.952	158.897
738.080	162.433
738.208	158.722
738.337	156.804
738.465	159.701
738.593	156.144
738.721	156.866
738.849	156.732
738.977	156.691
739.105	158.680
739.233	152.526
739.362	152.784
739.490	154.536
739.618	155.660
739.746	155.495
739.874	153.866
740.002	153.691
740.130	153.330
740.258	152.722
740.387	157.196
740.515	155.247
740.643	157.454
740.771	152.711
740.899	153.454
741.027	151.485
741.155	151.814
741.283	151.134
741.412	150.608
741.540	153.062
741.668	152.216
741.796	153.186
741.924	151.082
742.052	151.392
742.180	152.866
742.308	151.918
742.437	153.907
742.565	148.000
742.693	151.186
742.821	151.330
742.949	151.670
743.077	151.247
743.205	152.392
743.333	150.041
743.462	152.742
743.590	150.258
743.718	148.443
743.846	147.639
743.974	147.649
744.102	147.278
744.230	150.732
744.358	147.258
744.487	148.814
744.615	145.412
744.743	145.979
744.871	144.948
744.999	143.361
745.127	143.072
745.255	146.351
745.383	147.052
745.512	145.237
745.640	144.268
745.768	141.598
745.896	142.392
746.024	142.969
746.152	142.237
746.280	144.990
746.408	141.753
746.537	145.598
746.665	144.608
746.793	141.907
746.921	145.546
747.049	144.423
747.177	141.567
747.305	140.505
747.433	139.392
747.562	142.361
747.690	139.804
747.818	142.557
747.946	140.474
748.074	142.062
748.202	138.216
748.330	140.237
748.458	141.165
748.587	142.309
748.715	139.134
748.843	140.454
748.971	140.216
749.099	136.454
749.227	136.608
749.355	133.784
749.483	138.577
749.612	137.175
749.740	136.639
749.868	136.814
749.996	136.629
750.124	134.773
750.252	135.134
750.380	136.392
750.508	138.959
750.637	133.835
750.765	138.361
750.893	133.784
751.021	133.763
751.149	137.784
751.277	134.237
751.405	135.216
751.533	135.330
751.662	138.175
751.790	136.103
751.918	138.227
752.046	135.742
752.174	132.082
752.302	134.649
752.430	133.423
752.558	133.423
752.687	131.052
752.815	135.041
752.943	134.340
753.071	134.155
753.199	132.412
753.327	131.598
753.455	131.598
753.583	132.216
753.712	129.763
753.840	130.938
753.968	135.959
754.096	128.814
754.224	132.433
754.352	130.825
754.480	130.175
754.608	130.536
754.737	129.753
754.865	128.918
754.993	129.515
755.121	129.990
755.249	130.103
755.377	128.928
755.505	130.000
755.633	131.856
755.762	126.227
755.890	129.216
756.018	126.866
756.146	129.021
756.274	128.557
756.402	129.093
756.530	128.856
756.658	126.670
756.787	128.216
756.915	124.670
757.043	124.536
757.171	129.845
757.299	125.464
757.427	124.845
757.555	125.557
757.683	126.392
757.812	126.918
757.940	127.763
758.068	128.072
758.196	125.052
758.324	127.443
758.452	124.907
758.580	123.052
758.708	127.990
758.837	126.381
758.965	125.464
759.093	124.268
759.221	125.567
759.349	123.577
759.477	122.619
759.605	124.124
759.733	125.402
759.862	125.567
759.990	121.722
760.118	124.361
760.246	122.619
760.374	122.907
760.502	120.320
760.630	121.320
760.758	121.866
760.887	119.814
761.015	119.979
761.143	122.969
761.271	121.309
761.399	121.196
761.527	121.753
761.655	119.649
761.783	120.557
761.912	120.443
762.040	121.423
762.168	120.526
762.296	118.340
762.424	120.773
762.552	117.887
762.680	118.866
762.808	118.155
762.937	117.649
763.065	117.938
763.193	121.598
763.321	118.392
763.449	119.763
763.577	116.144
763.705	118.072
763.833	116.485
763.962	115.866
764.090	116.289
764.218	118.990
764.346	116.186
764.474	118.546
764.602	118.278
764.730	115.454
764.858	116.845
764.987	115.918
765.115	114.876
765.243	116.186
765.371	115.340
765.499	115.639
765.627	115.000
765.755	114.804
765.883	114.474
766.012	113.680
766.140	113.649
766.268	114.412
766.396	115.247
766.524	115.485
766.652	115.742
766.780	112.938
766.908	115.598
767.037	114.495
767.165	114.557
767.293	114.526
767.421	115.443
767.549	113.907
767.677	114.474
767.805	113.907
767.933	113.979
768.062	113.361
768.190	114.474
768.318	113.887
768.446	113.433
768.574	114.072
768.702	114.330
768.830	113.072
768.958	111.990
769.087	113.258
769.215	113.175
769.343	112.969
769.471	114.567
769.599	114.505
769.727	114.392
769.855	112.639
769.983	111.021
770.112	112.299
770.240	112.155
770.368	111.381
770.496	113.649
770.624	114.320
770.752	112.753
770.880	113.062
771.008	113.062
771.137	113.237
771.265	112.392
771.393	113.412
771.521	111.619
771.649	113.670
771.777	112.237
771.905	113.155
772.033	114.340
772.162	112.536
772.290	112.103
772.418	113.186
772.546	110.959
772.674	113.134
772.802	111.526
772.930	110.969
773.058	110.495
773.187	109.907
773.315	111.381
773.443	110.320
773.571	111.948
773.699	109.907
773.827	110.155
773.955	112.237
774.083	111.206
774.212	109.495
774.340	111.031
774.468	109.639
774.596	110.000
774.724	110.732
774.852	110.835
774.980	110.093
775.108	109.485
775.237	109.381
775.365	109.567
775.493	111.546
775.621	109.103
775.749	111.072
775.877	110.649
776.005	110.598
776.133	111.103
776.262	111.464
776.390	110.464
776.518	109.474
776.646	109.608
776.774	109.464
776.902	109.134
777.030	108.938
777.158	109.763
777.287	109.351
777.415	108.969
777.543	109.361
777.671	110.093
777.799	109.990
777.927	110.711
778.055	109.371
778.183	110.412
778.312	110.206
778.440	109.979
778.568	110.804
778.696	108.670
778.824	109.412
778.952	109.711
779.080	108.299
779.208	107.907
779.337	108.454
779.465	110.072
779.593	109.639
779.721	109.134
779.849	110.144
779.977	109.629
780.105	109.948
780.233	108.948
780.362	108.557
780.490	109.082
780.618	108.299
780.746	108.784
780.874	107.330
781.002	107.763
781.130	108.990
781.258	107.629
781.387	108.866
781.515	107.742
781.643	107.031
781.771	107.876
781.899	107.959
782.027	107.845
782.155	108.784
782.283	106.351
782.412	106.268
782.540	110.124
782.668	108.041
782.796	106.320
782.924	107.876
783.052	106.784
783.180	106.979
783.308	107.103
783.437	108.330
783.565	108.773
783.693	108.041
783.821	106.598
783.949	108.010
784.077	107.309
784.205	106.588
784.333	107.082
784.462	107.918
784.590	108.691
784.718	107.567
784.846	106.433
784.974	106.649
785.102	108.165
785.230	109.247
785.358	106.206
785.487	106.948
785.615	107.268
785.743	106.526
785.871	106.485
785.999	107.113
786.127	106.866
786.255	107.072
786.383	106.021
786.512	107.309
786.640	106.866
786.768	107.577
786.896	106.928
787.024	106.835
787.152	106.041
787.280	106.639
787.408	107.464
787.537	106.856
787.665	105.680
787.793	106.784
787.921	105.464
788.049	106.546
788.177	107.454
788.305	105.835
788.433	105.660
788.562	105.619
788.690	105.247
788.818	106.289
788.946	105.227
789.074	104.649
789.202	107.021
789.330	106.660
789.458	106.701
789.587	105.515
789.715	105.701
789.843	105.505
789.971	106.804
790.099	106.247
790.227	105.866
790.355	105.082
790.483	105.412
790.612	105.031
790.740	106.278
790.868	105.773
790.996	105.722
791.124	104.062
791.252	105.268
791.380	105.866
791.508	103.515
791.637	104.711
791.765	104.876
791.893	103.856
792.021	104.155
792.149	104.474
792.277	105.392
792.405	105.876
792.533	105.598
792.662	103.907
792.790	104.691
792.918	105.010
793.046	104.402
793.174	105.753
793.302	105.289
793.430	104.495
793.558	105.165
793.687	105.918
793.815	104.835
793.943	104.021
794.071	102.299
794.199	102.763
794.327	102.979
794.455	105.186
794.583	104.351
794.712	105.237
794.840	103.454
794.968	102.588
795.096	103.299
795.224	104.340
795.352	103.433
795.480	103.928
795.608	104.938
795.737	105.103
795.865	103.773
795.993	103.691
796.121	103.485
796.249	104.464
796.377	103.216
796.505	102.351
796.633	104.206
796.762	102.691
796.890	105.330
797.018	105.536
797.146	102.546
797.274	100.351
797.402	101.464
797.530	103.113
797.658	103.856
797.787	104.567
797.915	104.371
798.043	104.093
798.171	102.866
798.299	102.041
798.427	102.320
798.555	102.000
798.683	101.134
798.812	101.567
798.940	102.464
799.068	104.113
799.196	102.144
799.324	102.052
799.452	102.619
799.580	103.134
799.708	103.289
799.837	102.794
799.965	102.866
800.093	102.639
800.221	103.278
800.349	103.887
800.477	103.495
800.605	102.247
800.733	103.010
800.862	102.021
800.990	102.876
801.118	102.598
801.246	102.557
801.374	101.928
801.502	102.134
801.630	101.557
801.758	102.876
801.887	101.505
802.015	102.299
802.143	100.948
802.271	102.742
802.399	102.979
802.527	102.495
802.655	101.918
802.783	101.196
802.912	101.722
803.040	101.361
803.168	101.392
803.296	101.309
803.424	101.103
803.552	100.629
803.680	101.093
803.808	101.278
803.937	100.845
804.065	101.619
804.193	100.918
804.321	101.144
804.449	101.763
804.577	100.340
804.705	102.031
804.833	99.959
804.962	99.866
805.090	100.423
805.218	100.753
805.346	101.711
805.474	102.845
805.602	103.082
805.730	102.691
805.858	101.619
805.987	100.577
806.115	101.052
806.243	100.062
806.371	101.052
806.499	101.186
806.627	100.330
806.755	101.577
806.883	101.619
807.012	101.784
807.140	101.546
807.268	101.155
807.396	102.557
807.524	101.340
807.652	101.361
807.780	101.876
807.908	101.443
808.037	100.608
808.165	101.155
808.293	100.928
808.421	101.969
808.549	100.969
808.677	99.588
808.805	101.969
808.933	100.784
809.062	100.608
809.190	99.928
809.318	101.835
809.446	100.969
809.574	99.289
809.702	100.794
809.830	99.485
809.958	100.216
810.087	100.227
810.215	102.144
810.343	101.835
810.471	102.660
810.599	99.505
810.727	101.629
810.855	100.196
810.983	101.474
811.112	102.082
811.240	100.814
811.368	100.402
811.496	100.629
811.624	100.412
811.752	100.474
811.880	100.567
812.008	101.062
812.137	100.021
812.265	100.722
812.393	99.814
812.521	100.660
812.649	100.670
812.777	99.588
812.905	99.351
813.033	99.113
813.162	99.567
813.290	101.072
813.418	99.072
813.546	99.598
813.674	100.567
813.802	98.639
813.930	98.433
814.058	100.155
814.187	99.948
814.315	100.588
814.443	99.505
814.571	98.969
814.699	99.753
814.827	100.258
814.955	100.825
815.083	100.825
815.212	100.588
815.340	99.402
815.468	98.227
815.596	99.000
815.724	99.866
815.852	100.000
815.980	100.660
816.108	98.722
816.237	99.031
816.365	99.753
816.493	99.969
816.621	98.763
816.749	100.918
816.877	98.474
817.005	100.433
817.133	99.639
817.262	99.948
817.390	100.526
817.518	100.588
817.646	99.247
817.774	100.588
817.902	101.351
818.030	99.103
818.158	100.402
818.287	100.093
818.415	99.639
818.543	99.464
818.671	101.072
818.799	98.227
818.927	98.876
819.055	99.320
819.183	100.433
819.312	100.103
819.440	98.907
819.568	99.371
819.696	100.856
819.824	98.577
819.952	99.309
820.080	99.082
820.208	99.052
820.337	100.371
820.465	98.887
820.593	98.804
820.721	100.134
820.849	98.608
820.977	98.608
821.105	101.072
821.233	97.804
821.362	98.402
821.490	100.062
821.618	98.423
821.746	99.010
821.874	98.454
822.002	99.443
822.130	100.144
822.258	99.330
822.387	98.144
822.515	100.340
822.643	98.361
822.771	96.505
822.899	98.794
823.027	99.113
823.155	98.289
823.283	98.258
823.412	100.887
823.540	99.082
823.668	98.835
823.796	98.392
823.924	100.155
824.052	97.495
824.180	96.495
824.308	98.649
824.437	98.948
824.565	98.227
824.693	99.412
824.821	99.299
824.949	99.113
825.077	98.464
825.205	97.557
825.333	97.773
825.462	99.670
825.590	98.124
825.718	96.753
825.846	97.536
825.974	98.103
826.102	98.804
826.230	99.969
826.358	98.144
826.487	99.093
826.615	97.392
826.743	98.165
826.871	99.526
826.999	98.433
827.127	99.268
827.255	97.938
827.383	97.216
827.512	97.598
827.640	99.113
827.768	99.041
827.896	97.639
828.024	96.928
828.152	98.082
828.280	99.608
828.408	99.412
828.537	98.206
828.665	97.732
828.793	97.835
828.921	98.928
829.049	98.268
829.177	97.402
829.305	99.196
829.433	97.794
829.562	97.814
829.690	98.309
829.818	98.773
829.946	98.021
830.074	97.299
830.202	99.330
830.330	97.608
830.458	98.722
830.587	98.639
830.715	98.124
830.843	97.948
830.971	97.629
831.099	97.814
831.227	99.072
831.355	98.289
831.483	98.773
831.612	99.010
831.740	99.216
831.868	98.938
831.996	98.320
832.124	98.804
832.252	97.825
832.380	97.732
832.508	97.856
832.637	97.526
832.765	98.794
832.893	99.216
833.021	98.268
833.149	99.041
833.277	98.485
833.405	99.608
833.533	97.093
833.662	98.175
833.790	98.608
833.918	99.237
834.046	98.186
834.174	99.093
834.302	98.526
834.430	97.557
834.558	98.773
834.687	98.619
834.815	97.887
834.943	98.299
835.071	98.031
835.199	98.227
835.327	97.289
835.455	97.722
835.583	98.814
835.712	97.124
835.840	98.433
835.968	98.443
836.096	98.041
836.224	98.371
836.352	99.247
836.480	98.402
836.608	97.794
836.737	98.062
836.865	98.381
836.993	97.784
837.121	98.794
837.249	98.938
837.377	99.639
837.505	98.134
837.633	97.649
837.762	98.175
837.890	96.216
838.018	96.144
838.146	98.309
838.274	97.206
838.402	98.742
838.530	96.742
838.658	98.010
838.787	98.546
838.915	98.515
839.043	98.619
839.171	98.825
839.299	99.103
839.427	98.000
839.555	99.557
839.683	100.330
839.812	98.856
839.940	98.093
840.068	97.268
840.196	99.103
840.324	98.072
840.452	98.505
840.580	97.887
840.708	98.814
840.837	99.546
840.965	98.856
841.093	99.763
841.221	99.258
841.349	99.227
841.477	98.722
841.605	97.454
841.733	97.691
841.862	99.371
841.990	98.526
842.118	98.660
842.246	97.938
842.374	97.093
842.502	98.072
842.630	98.113
842.758	98.155
842.887	97.629
843.015	99.144
843.143	97.505
843.271	98.567
843.399	98.928
843.527	97.464
843.655	97.680
843.783	98.206
843.912	97.990
844.040	97.608
844.168	98.691
844.296	98.495
844.424	98.691
844.552	97.722
844.680	96.907
844.808	98.454
844.937	97.526
845.065	96.505
845.193	99.680
845.321	97.464
845.449	98.938
845.577	98.660
845.705	97.732
845.833	99.649
845.962	98.381
846.090	97.216
846.218	97.206
846.346	99.598
846.474	98.546
846.602	97.021
846.730	98.010
846.858	97.660
846.987	97.722
847.115	98.670
847.243	98.505
847.371	99.577
847.499	96.330
847.627	97.515
847.755	97.258
847.883	97.722
848.012	97.381
848.140	98.887
848.268	97.536
848.396	97.010
848.524	99.433
848.652	98.753
848.780	96.412
848.908	98.825
849.037	98.392
849.165	98.742
849.293	97.814
849.421	98.990
849.549	98.134
849.677	96.464
849.805	97.784
849.933	98.351
850.062	98.485
850.190	99.021
850.318	97.299
850.446	99.021
850.574	97.670
850.702	97.608
850.830	97.536
850.958	98.196
851.087	97.948
851.215	98.124
851.343	98.113
851.471	96.990
851.599	98.495
851.727	98.278
851.855	99.485
851.983	97.216
852.112	98.959
852.240	98.237
852.368	97.536
852.496	98.639
852.624	96.814
852.752	96.247
852.880	97.464
853.008	98.052
853.137	100.021
853.265	99.340
853.393	98.526
853.521	97.309
853.649	97.433
853.777	98.371
853.905	98.433
854.033	97.258
854.162	98.443
854.290	97.794
854.418	97.856
854.546	97.773
854.674	98.423
854.802	96.876
854.930	98.000
855.058	97.289
855.187	98.423
855.315	97.835
855.443	97.918
855.571	99.351
855.699	98.938
855.827	97.124
855.955	97.948
856.083	98.722
856.212	98.381
856.340	99.825
856.468	97.763
856.596	97.474
856.724	98.093
856.852	98.175
856.980	97.227
857.108	97.309
857.237	97.619
857.365	96.165
857.493	98.691
857.621	97.124
857.749	96.897
857.877	97.299
858.005	98.485
858.133	96.175
858.262	97.577
858.390	97.959
858.518	96.680
858.646	97.598
858.774	99.515
858.902	98.237
859.030	98.959
859.158	97.598
859.287	98.021
859.415	96.959
859.543	97.577
859.671	98.010
859.799	98.289
859.927	97.763
860.055	98.670
860.183	97.938
860.312	97.351
860.440	97.237
860.568	98.268
860.696	97.753
860.824	98.485
860.952	97.371
861.080	98.155
861.208	98.289
861.337	97.505
861.465	97.474
861.593	97.876
861.721	98.928
861.849	96.546
861.977	97.938
862.105	97.443
862.233	97.876
862.362	97.856
862.490	98.134
862.618	98.536
862.746	98.237
862.874	98.928
863.002	99.082
863.130	98.598
863.258	98.629
863.387	98.392
863.515	99.021
863.643	97.845
863.771	98.351
863.899	98.742
864.027	99.485
864.155	98.010
864.283	97.134
864.412	98.588
864.540	99.144
864.668	97.526
864.796	98.619
864.924	98.856
865.052	97.763
865.180	98.392
865.308	98.010
865.437	97.557
865.565	97.979
865.693	98.196
865.821	97.897
865.949	99.062
866.077	99.608
866.205	97.773
866.333	97.969
866.462	97.258
866.590	99.093
866.718	98.845
866.846	99.505
866.974	99.206
867.102	97.082
867.230	96.536
867.358	97.660
867.487	97.670
867.615	98.124
867.743	98.794
867.871	98.876
867.999	99.711
868.127	97.948
868.255	98.464
868.383	98.835
868.512	99.062
868.640	98.454
868.768	99.629
868.896	97.639
869.024	97.175
869.152	98.361
869.280	100.041
869.408	99.629
869.537	97.742
869.665	98.928
869.793	98.722
869.921	97.742
870.049	98.330
870.177	99.289
870.305	100.392
870.433	99.443
870.562	99.371
870.690	98.247
870.818	98.268
870.946	98.845
871.074	99.124
871.202	97.887
871.330	99.206
871.458	98.608
871.587	98.423
871.715	97.557
871.843	98.608
871.971	98.320
872.099	97.247
872.227	98.000
872.355	99.474
872.483	98.887
872.612	100.412
872.740	98.814
872.868	98.619
872.996	98.691
873.124	98.381
873.252	99.670
873.380	97.773
873.508	98.907
873.637	98.876
873.765	98.722
873.893	99.515
874.021	99.732
874.149	98.732
874.277	98.454
874.405	100.866
874.533	100.165
874.662	98.093
874.790	97.680
874.918	98.402
875.046	97.804
875.174	97.928
875.302	98.392
875.430	98.670
875.558	97.443
875.687	98.165
875.815	98.969
875.943	98.722
876.071	99.938
876.199	100.227
876.327	97.753
876.455	99.722
876.583	99.093
876.712	98.134
876.840	98.062
876.968	99.000
877.096	99.206
877.224	100.031
877.352	97.804
877.480	99.299
877.608	98.711
877.737	98.742
877.865	96.794
877.993	98.918
878.121	98.351
878.249	99.969
878.377	98.443
878.505	97.722
878.633	99.701
878.762	99.897
878.890	97.825
879.018	99.907
879.146	99.237
879.274	98.897
879.402	99.794
879.530	97.959
879.658	99.464
879.787	99.124
879.915	97.206
880.043	98.010
880.171	98.639
880.299	98.546
880.427	98.742
880.555	99.454
880.683	99.402
880.812	98.402
880.940	97.371
881.068	98.608
881.196	98.010
881.324	99.227
881.452	98.577
881.580	99.546
881.708	99.412
881.837	98.907
881.965	97.412
882.093	98.082
882.221	98.948
882.349	97.289
882.477	100.577
882.605	100.144
882.733	98.670
882.862	100.103
882.990	98.505
883.118	100.278
883.246	98.722
883.374	99.351
883.502	98.598
883.630	100.227
883.758	100.072
883.887	98.608
884.015	100.000
884.143	99.423
884.271	100.041
884.399	99.175
884.527	98.742
884.655	99.320
884.783	99.814
884.912	99.196
885.040	98.773
885.168	98.928
885.296	97.845
885.424	99.320
885.552	99.196
885.680	98.577
885.808	98.660
885.937	99.680
886.065	98.928
886.193	98.608
886.321	99.093
886.449	98.835
886.577	99.309
886.705	99.072
886.833	98.381
886.962	99.175
887.090	99.000
887.218	99.289
887.346	98.701
887.474	99.907
887.602	99.660
887.730	97.711
887.858	99.093
887.987	98.969
888.115	98.588
888.243	100.412
888.371	99.598
888.499	100.175
888.627	97.412
888.755	98.804
888.883	99.732
889.012	98.969
889.140	98.299
889.268	98.474
889.396	99.649
889.524	99.381
889.652	99.268
889.780	98.619
889.908	98.268
890.037	99.010
890.165	98.309
890.293	98.546
890.421	99.412
890.549	100.309
890.677	98.227
890.805	99.124
890.933	98.897
891.062	98.711
891.190	99.619
891.318	100.773
891.446	100.010
891.574	98.804
891.702	98.227
891.830	98.361
891.958	99.041
892.087	99.320
892.215	99.464
892.343	100.804
892.471	98.351
892.599	99.536
892.727	100.392
892.855	100.443
892.983	99.742
893.112	99.278
893.240	99.856
893.368	99.835
893.496	99.412
893.624	99.495
893.752	100.701
893.880	98.237
894.008	98.608
894.137	98.732
894.265	99.268
894.393	100.247
894.521	99.072
894.649	99.330
894.777	99.876
894.905	98.433
895.033	102.186
895.162	100.010
895.290	99.526
895.418	100.072
895.546	100.773
895.674	98.907
895.802	98.907
895.930	99.856
896.058	98.495
896.187	99.588
896.315	100.845
896.443	100.763
896.571	99.093
896.699	100.402
896.827	100.485
896.955	100.567
897.083	100.227
897.212	100.711
897.340	98.948
897.468	98.340
897.596	99.990
897.724	98.433
897.852	99.216
897.980	99.371
898.108	98.021
898.237	98.866
898.365	98.887
898.493	99.258
898.621	99.835
898.749	100.021
898.877	98.825
899.005	99.495
899.133	99.784
899.262	99.392
899.390	97.866
899.518	98.794
899.646	98.918
899.774	100.031
899.902	99.124
900.030	99.918
900.158	98.392
900.287	100.093
900.415	99.093
900.543	99.247
900.671	100.680
900.799	99.526
900.927	100.144
901.055	98.660
901.183	100.464
901.312	99.577
901.440	100.649
901.568	100.670
901.696	99.175
901.824	99.959
901.952	100.979
902.080	99.546
902.208	99.588
902.337	99.979
902.465	99.474
902.593	100.639
902.721	101.515
902.849	101.402
902.977	99.680
903.105	100.082
903.233	100.031
903.362	100.216
903.490	98.753
903.618	98.763
903.746	99.010
903.874	100.866
904.002	101.268
904.130	99.474
904.258	100.866
904.387	99.794
904.515	100.041
904.643	100.124
904.771	101.062
904.899	100.278
905.027	100.186
905.155	98.474
905.283	100.196
905.412	99.804
905.540	99.598
905.668	99.546
905.796	99.505
905.924	100.103
906.052	99.959
906.180	101.567
906.308	99.093
906.437	98.536
906.565	100.443
906.693	99.557
906.821	98.412
906.949	100.268
907.077	99.155
907.205	101.381
907.333	99.175
907.462	101.278
907.590	100.423
907.718	100.082
907.846	100.619
907.974	101.196
908.102	100.124
908.230	99.639
908.358	98.876
908.487	98.639
908.615	98.887
908.743	99.227
908.871	101.155
908.999	100.309
909.127	99.289
909.255	99.598
909.383	99.361
909.512	99.691
909.640	101.000
909.768	100.866
909.896	100.907
910.024	100.773
910.152	101.773
910.280	100.082
910.408	100.175
910.537	101.041
910.665	100.247
910.793	100.567
910.921	99.639
911.049	100.206
911.177	98.649
911.305	100.175
911.433	100.000
911.562	100.753
911.690	98.814
911.818	98.856
911.946	100.134
912.074	100.134
912.202	99.722
912.330	99.577
912.458	101.515
912.587	99.557
912.715	98.794
912.843	100.186
912.971	101.186
913.099	100.691
913.227	100.680
913.355	100.608
913.483	100.320
913.612	100.227
913.740	100.598
913.868	100.247
