whitev_at_750.00nm_cut_at_1060.50Y_01.dat
19.06.2023
11:25:31
cut middle at Y: 1060.50
top cursor: 1109 down cursor: 1012 mean of: 97 lines , 2560 datapoints
wavelength(nm)	intensity[arb. units]
585.996	629.206
586.124	604.557
586.252	605.031
586.380	600.464
586.508	604.598
586.637	604.381
586.765	604.371
586.893	602.412
587.021	602.979
587.149	603.804
587.277	602.990
587.405	603.845
587.533	599.206
587.662	607.753
587.790	609.268
587.918	602.722
588.046	608.175
588.174	601.546
588.302	608.289
588.430	605.113
588.558	605.825
588.687	607.897
588.815	616.175
588.943	606.144
589.071	604.732
589.199	608.722
589.327	602.258
589.455	601.144
589.583	607.258
589.712	613.237
589.840	606.649
589.968	594.505
590.096	604.072
590.224	601.608
590.352	604.938
590.480	601.010
590.608	607.258
590.737	594.381
590.865	606.237
590.993	605.010
591.121	597.485
591.249	606.082
591.377	593.247
591.505	598.804
591.633	597.948
591.762	601.103
591.890	605.443
592.018	602.000
592.146	598.495
592.274	601.773
592.402	597.763
592.530	596.557
592.658	595.784
592.787	595.897
592.915	599.722
593.043	604.567
593.171	592.082
593.299	600.784
593.427	598.330
593.555	599.866
593.683	598.773
593.812	601.093
593.940	606.381
594.068	598.979
594.196	611.897
594.324	599.247
594.452	610.485
594.580	613.680
594.708	607.990
594.837	608.979
594.965	610.371
595.093	611.948
595.221	612.433
595.349	617.392
595.477	614.340
595.605	612.320
595.733	627.258
595.862	618.186
595.990	617.969
596.118	622.340
596.246	622.856
596.374	618.619
596.502	613.124
596.630	625.392
596.758	621.557
596.887	626.237
597.015	626.330
597.143	616.794
597.271	624.165
597.399	619.608
597.527	623.691
597.655	621.216
597.783	624.629
597.912	618.361
598.040	621.227
598.168	619.165
598.296	619.598
598.424	616.526
598.552	607.691
598.680	614.072
598.808	619.990
598.937	615.515
599.065	617.598
599.193	611.804
599.321	608.165
599.449	615.278
599.577	619.454
599.705	616.732
599.833	616.649
599.962	609.072
600.090	602.680
600.218	612.010
600.346	613.072
600.474	608.144
600.602	610.000
600.730	606.691
600.858	612.784
600.987	607.536
601.115	610.278
601.243	610.227
601.371	612.443
601.499	609.835
601.627	608.784
601.755	613.309
601.883	616.000
602.012	614.753
602.140	610.701
602.268	612.629
602.396	617.361
602.524	620.031
602.652	620.784
602.780	616.536
602.908	628.742
603.037	625.546
603.165	626.938
603.293	625.515
603.421	630.134
603.549	625.402
603.677	631.485
603.805	625.443
603.933	634.309
604.062	633.598
604.190	642.454
604.318	636.062
604.446	648.804
604.574	643.124
604.702	645.495
604.830	644.485
604.958	649.918
605.087	647.608
605.215	650.381
605.343	650.546
605.471	672.897
605.599	650.309
605.727	649.887
605.855	651.722
605.983	655.010
606.112	659.907
606.240	665.485
606.368	657.196
606.496	655.485
606.624	654.433
606.752	662.887
606.880	660.062
607.008	658.278
607.137	658.557
607.265	665.124
607.393	668.206
607.521	660.454
607.649	659.763
607.777	664.990
607.905	660.103
608.033	656.515
608.162	655.227
608.290	657.371
608.418	669.835
608.546	660.753
608.674	659.474
608.802	655.639
608.930	666.165
609.058	656.454
609.187	657.680
609.315	663.299
609.443	653.186
609.571	662.732
609.699	659.866
609.827	654.670
609.955	656.412
610.083	651.495
610.212	645.247
610.340	655.567
610.468	651.186
610.596	653.495
610.724	649.979
610.852	657.784
610.980	648.093
611.108	651.546
611.237	651.082
611.365	653.258
611.493	642.351
611.621	651.144
611.749	653.268
611.877	652.598
612.005	652.402
612.133	651.443
612.262	651.608
612.390	654.660
612.518	659.845
612.646	655.155
612.774	654.660
612.902	666.619
613.030	665.186
613.158	660.443
613.287	659.845
613.415	662.598
613.543	670.340
613.671	661.866
613.799	664.619
613.927	671.443
614.055	671.866
614.183	673.371
614.312	668.216
614.440	669.732
614.568	674.309
614.696	671.041
614.824	672.907
614.952	680.093
615.080	680.237
615.208	678.897
615.337	685.412
615.465	670.113
615.593	684.216
615.721	679.392
615.849	688.289
615.977	687.619
616.105	679.227
616.233	686.392
616.362	692.010
616.490	680.196
616.618	689.041
616.746	685.959
616.874	677.866
617.002	690.052
617.130	693.320
617.258	686.371
617.387	683.443
617.515	686.299
617.643	685.031
617.771	690.660
617.899	693.495
618.027	682.856
618.155	690.052
618.283	685.804
618.412	693.175
618.540	686.206
618.668	685.227
618.796	688.753
618.924	698.474
619.052	685.753
619.180	687.247
619.308	687.485
619.437	686.835
619.565	696.392
619.693	681.845
619.821	686.361
619.949	690.948
620.077	683.237
620.205	684.186
620.333	683.103
620.462	694.505
620.590	692.639
620.718	688.361
620.846	686.412
620.974	683.082
621.102	679.773
621.230	686.124
621.358	687.299
621.487	684.474
621.615	686.041
621.743	691.588
621.871	684.856
621.999	683.371
622.127	684.649
622.255	686.299
622.383	678.794
622.512	678.113
622.640	678.948
622.768	681.392
622.896	685.691
623.024	675.990
623.152	684.351
623.280	679.907
623.408	680.722
623.537	680.175
623.665	681.454
623.793	683.196
623.921	679.155
624.049	667.464
624.177	675.144
624.305	683.784
624.433	681.979
624.562	674.124
624.690	668.928
624.818	676.577
624.946	674.959
625.074	675.206
625.202	671.247
625.330	671.216
625.458	676.794
625.587	675.639
625.715	666.835
625.843	673.948
625.971	677.299
626.099	672.773
626.227	678.928
626.355	672.959
626.483	678.536
626.612	669.433
626.740	669.526
626.868	675.835
626.996	672.330
627.124	677.299
627.252	676.402
627.380	671.897
627.508	669.062
627.637	668.784
627.765	667.722
627.893	679.330
628.021	670.979
628.149	676.299
628.277	684.289
628.405	681.206
628.533	677.722
628.662	676.485
628.790	679.103
628.918	676.670
629.046	678.227
629.174	677.598
629.302	680.031
629.430	684.134
629.558	682.113
629.687	683.454
629.815	684.320
629.943	674.392
630.071	683.361
630.199	682.062
630.327	687.381
630.455	684.423
630.583	685.082
630.712	684.680
630.840	681.670
630.968	685.629
631.096	688.495
631.224	682.979
631.352	681.742
631.480	685.701
631.608	677.546
631.737	693.010
631.865	688.928
631.993	685.124
632.121	681.454
632.249	682.763
632.377	684.206
632.505	686.258
632.633	681.206
632.762	682.247
632.890	690.402
633.018	681.732
633.146	676.464
633.274	688.113
633.402	676.629
633.530	678.371
633.658	688.093
633.787	671.000
633.915	677.021
634.043	676.247
634.171	674.866
634.299	679.918
634.427	670.990
634.555	670.763
634.683	681.670
634.812	668.959
634.940	671.206
635.068	667.825
635.196	667.876
635.324	666.918
635.452	664.165
635.580	665.041
635.708	661.938
635.837	669.330
635.965	665.237
636.093	657.062
636.221	660.258
636.349	651.134
636.477	653.062
636.605	654.577
636.733	652.495
636.862	649.897
636.990	656.608
637.118	649.990
637.246	645.557
637.374	650.361
637.502	649.134
637.630	648.371
637.758	642.753
637.887	648.711
638.015	642.155
638.143	654.639
638.271	638.052
638.399	640.546
638.527	638.546
638.655	641.402
638.783	640.186
638.912	643.443
639.040	638.722
639.168	635.856
639.296	640.412
639.424	643.175
639.552	633.742
639.680	630.474
639.808	636.701
639.937	638.732
640.065	630.835
640.193	634.258
640.321	636.186
640.449	629.856
640.577	639.402
640.705	627.722
640.833	631.010
640.962	632.258
641.090	628.680
641.218	633.320
641.346	617.948
641.474	624.753
641.602	631.526
641.730	624.052
641.858	629.175
641.987	627.010
642.115	624.433
642.243	626.278
642.371	629.691
642.499	631.196
642.627	629.072
642.755	622.938
642.883	629.794
643.012	619.814
643.140	617.227
643.268	626.619
643.396	626.371
643.524	629.825
643.652	627.856
643.780	623.392
643.908	624.680
644.037	623.866
644.165	625.732
644.293	617.196
644.421	623.340
644.549	621.412
644.677	629.856
644.805	622.021
644.933	622.103
645.062	620.804
645.190	618.031
645.318	619.784
645.446	630.330
645.574	620.299
645.702	628.175
645.830	632.969
645.958	627.649
646.087	621.938
646.215	622.825
646.343	625.247
646.471	624.165
646.599	625.557
646.727	622.392
646.855	621.763
646.983	623.753
647.112	622.660
647.240	619.732
647.368	612.979
647.496	622.928
647.624	614.361
647.752	616.835
647.880	611.959
648.008	616.505
648.137	610.546
648.265	607.206
648.393	610.464
648.521	615.010
648.649	611.928
648.777	606.866
648.905	605.660
649.033	599.814
649.162	602.144
649.290	605.134
649.418	598.412
649.546	602.103
649.674	593.773
649.802	599.608
649.930	594.227
650.058	592.649
650.187	600.392
650.315	598.763
650.443	591.268
650.571	593.680
650.699	592.443
650.827	596.536
650.955	591.876
651.083	591.969
651.212	583.278
651.340	587.763
651.468	584.598
651.596	584.371
651.724	588.897
651.852	578.722
651.980	580.660
652.108	587.093
652.237	579.804
652.365	576.124
652.493	575.866
652.621	572.660
652.749	577.485
652.877	575.361
653.005	570.938
653.133	584.165
653.262	573.041
653.390	574.041
653.518	567.433
653.646	570.134
653.774	574.577
653.902	572.423
654.030	562.258
654.158	558.381
654.287	562.072
654.415	562.247
654.543	558.082
654.671	558.474
654.799	556.072
654.927	559.278
655.055	553.278
655.183	554.330
655.312	551.918
655.440	553.000
655.568	540.680
655.696	550.959
655.824	546.041
655.952	546.711
656.080	548.794
656.208	547.082
656.337	547.351
656.465	549.959
656.593	545.505
656.721	539.897
656.849	547.577
656.977	543.258
657.105	540.515
657.233	541.031
657.362	534.103
657.490	540.299
657.618	539.969
657.746	540.289
657.874	534.557
658.002	536.021
658.130	527.938
658.258	531.526
658.387	529.619
658.515	518.784
658.643	525.361
658.771	530.443
658.899	521.062
659.027	527.546
659.155	522.454
659.283	523.144
659.412	517.938
659.540	525.340
659.668	525.619
659.796	513.309
659.924	524.680
660.052	516.082
660.180	506.598
660.308	518.526
660.437	510.763
660.565	503.763
660.693	512.711
660.821	510.103
660.949	502.330
661.077	501.515
661.205	502.206
661.333	503.423
661.462	509.361
661.590	507.165
661.718	495.320
661.846	499.814
661.974	501.897
662.102	498.701
662.230	498.433
662.358	498.990
662.487	492.031
662.615	491.732
662.743	489.278
662.871	493.031
662.999	492.649
663.127	495.361
663.255	486.948
663.383	488.320
663.512	488.381
663.640	486.216
663.768	491.505
663.896	487.928
664.024	484.381
664.152	485.412
664.280	484.948
664.408	483.948
664.537	484.588
664.665	486.598
664.793	486.649
664.921	479.330
665.049	485.557
665.177	487.670
665.305	479.866
665.433	482.495
665.562	483.258
665.690	479.515
665.818	478.701
665.946	475.237
666.074	475.639
666.202	479.804
666.330	473.928
666.458	471.464
666.587	479.216
666.715	481.887
666.843	479.639
666.971	469.876
667.099	475.371
667.227	475.412
667.355	474.072
667.483	477.938
667.612	474.165
667.740	472.320
667.868	472.897
667.996	466.567
668.124	471.361
668.252	470.340
668.380	467.856
668.508	476.216
668.637	468.567
668.765	470.660
668.893	468.691
669.021	468.588
669.149	466.711
669.277	463.794
669.405	466.742
669.533	460.309
669.662	461.330
669.790	457.918
669.918	458.639
670.046	459.619
670.174	461.103
670.302	463.742
670.430	456.773
670.558	458.515
670.687	454.247
670.815	451.845
670.943	450.825
671.071	455.072
671.199	451.608
671.327	446.959
671.455	451.351
671.583	450.794
671.712	450.732
671.840	447.680
671.968	443.227
672.096	447.144
672.224	445.763
672.352	439.825
672.480	445.577
672.608	438.763
672.737	438.979
672.865	435.814
672.993	437.278
673.121	439.588
673.249	436.000
673.377	434.773
673.505	430.948
673.633	424.608
673.762	426.979
673.890	430.546
674.018	421.289
674.146	423.330
674.274	422.093
674.402	420.371
674.530	422.196
674.658	423.052
674.787	419.423
674.915	414.474
675.043	417.464
675.171	412.515
675.299	406.000
675.427	408.000
675.555	406.423
675.683	405.041
675.812	406.680
675.940	405.330
676.068	403.464
676.196	400.113
676.324	403.887
676.452	404.485
676.580	399.680
676.708	394.835
676.837	400.948
676.965	393.175
677.093	398.856
677.221	394.732
677.349	389.093
677.477	393.278
677.605	391.340
677.733	393.814
677.862	389.103
677.990	389.577
678.118	389.258
678.246	384.371
678.374	376.835
678.502	383.763
678.630	384.361
678.758	386.196
678.887	378.660
679.015	380.124
679.143	378.515
679.271	370.567
679.399	378.381
679.527	374.433
679.655	373.423
679.783	372.423
679.912	368.485
680.040	370.938
680.168	370.299
680.296	367.381
680.424	372.320
680.552	364.165
680.680	367.485
680.808	364.320
680.937	364.041
681.065	363.258
681.193	365.835
681.321	364.309
681.449	364.093
681.577	362.216
681.705	357.381
681.833	358.340
681.962	359.928
682.090	362.784
682.218	360.557
682.346	354.928
682.474	352.247
682.602	355.732
682.730	360.598
682.858	351.876
682.987	352.526
683.115	352.010
683.243	352.227
683.371	351.082
683.499	345.144
683.627	353.227
683.755	347.330
683.883	351.371
684.012	347.495
684.140	346.330
684.268	344.876
684.396	346.918
684.524	342.402
684.652	347.649
684.780	351.062
684.908	346.876
685.037	349.247
685.165	344.948
685.293	349.619
685.421	342.186
685.549	343.227
685.677	343.753
685.805	342.866
685.933	342.371
686.062	342.856
686.190	340.876
686.318	341.247
686.446	342.227
686.574	341.062
686.702	341.443
686.830	340.196
686.958	338.175
687.087	337.196
687.215	336.598
687.343	338.464
687.471	341.649
687.599	340.258
687.727	340.103
687.855	338.887
687.983	338.691
688.112	335.711
688.240	325.639
688.368	335.629
688.496	333.825
688.624	336.660
688.752	330.598
688.880	331.505
689.008	326.866
689.137	331.701
689.265	333.443
689.393	327.309
689.521	329.103
689.649	331.299
689.777	326.742
689.905	327.928
690.033	330.340
690.162	324.784
690.290	321.629
690.418	328.268
690.546	326.412
690.674	324.845
690.802	319.897
690.930	318.082
691.058	320.093
691.187	317.299
691.315	319.577
691.443	320.794
691.571	317.845
691.699	312.670
691.827	317.907
691.955	311.680
692.083	316.701
692.212	313.794
692.340	319.103
692.468	314.918
692.596	314.155
692.724	315.474
692.852	312.093
692.980	307.722
693.108	308.639
693.237	312.546
693.365	309.381
693.493	306.990
693.621	306.732
693.749	307.155
693.877	309.639
694.005	303.196
694.133	303.876
694.262	300.990
694.390	302.186
694.518	297.330
694.646	298.722
694.774	299.557
694.902	301.680
695.030	300.990
695.158	297.124
695.287	295.000
695.415	296.649
695.543	301.804
695.671	298.052
695.799	292.010
695.927	289.866
696.055	292.227
696.183	295.732
696.312	295.959
696.440	294.505
696.568	292.320
696.696	291.443
696.824	286.763
696.952	284.340
697.080	287.887
697.208	292.381
697.337	290.969
697.465	284.577
697.593	286.763
697.721	285.454
697.849	285.464
697.977	284.515
698.105	284.866
698.233	284.227
698.362	278.897
698.490	283.124
698.618	280.485
698.746	275.856
698.874	277.577
699.002	282.320
699.130	278.216
699.258	280.237
699.387	278.835
699.515	279.907
699.643	275.784
699.771	276.062
699.899	274.526
700.027	275.505
700.155	272.577
700.283	268.124
700.412	271.526
700.540	268.474
700.668	270.619
700.796	274.546
700.924	267.289
701.052	268.866
701.180	271.361
701.308	264.670
701.437	266.237
701.565	261.907
701.693	263.062
701.821	262.567
701.949	266.845
702.077	262.443
702.205	260.000
702.333	261.948
702.462	256.536
702.590	256.371
702.718	259.299
702.846	256.082
702.974	257.000
703.102	259.526
703.230	254.742
703.358	252.021
703.487	250.505
703.615	250.320
703.743	247.701
703.871	252.536
703.999	248.010
704.127	244.701
704.255	247.629
704.383	242.577
704.512	243.196
704.640	246.144
704.768	245.258
704.896	240.742
705.024	239.474
705.152	244.814
705.280	243.402
705.408	241.526
705.537	242.505
705.665	239.082
705.793	236.340
705.921	230.320
706.049	235.010
706.177	238.598
706.305	241.670
706.433	235.866
706.562	229.670
706.690	231.742
706.818	228.918
706.946	230.577
707.074	234.959
707.202	224.897
707.330	227.454
707.458	230.443
707.587	227.216
707.715	228.330
707.843	221.845
707.971	223.000
708.099	228.814
708.227	222.196
708.355	221.959
708.483	220.289
708.612	223.526
708.740	218.897
708.868	215.165
708.996	218.103
709.124	215.588
709.252	220.546
709.380	218.577
709.508	219.660
709.637	218.567
709.765	217.928
709.893	212.608
710.021	212.515
710.149	216.546
710.277	216.361
710.405	211.887
710.533	211.856
710.662	209.577
710.790	212.052
710.918	209.031
711.046	209.526
711.174	212.773
711.302	211.691
711.430	216.784
711.558	210.557
711.687	212.155
711.815	211.856
711.943	212.794
712.071	207.361
712.199	210.784
712.327	207.825
712.455	210.526
712.583	206.124
712.712	206.443
712.840	204.928
712.968	203.268
713.096	204.948
713.224	201.763
713.352	204.412
713.480	204.660
713.608	201.124
713.737	201.206
713.865	201.990
713.993	201.845
714.121	203.351
714.249	202.701
714.377	199.206
714.505	201.536
714.633	197.577
714.762	197.289
714.890	201.536
715.018	201.691
715.146	195.340
715.274	195.680
715.402	196.402
715.530	198.938
715.658	194.887
715.787	199.732
715.915	193.577
716.043	197.041
716.171	197.567
716.299	192.959
716.427	194.289
716.555	193.247
716.683	196.144
716.812	195.082
716.940	196.278
717.068	190.351
717.196	188.907
717.324	190.990
717.452	189.299
717.580	189.464
717.708	188.990
717.837	189.093
717.965	184.784
718.093	188.990
718.221	187.113
718.349	189.526
718.477	190.567
718.605	186.536
718.733	186.588
718.862	183.691
718.990	186.082
719.118	183.938
719.246	185.990
719.374	184.062
719.502	185.557
719.630	180.072
719.758	184.784
719.887	186.278
720.015	180.227
720.143	183.918
720.271	186.010
720.399	180.763
720.527	182.866
720.655	179.052
720.783	179.526
720.912	182.155
721.040	183.031
721.168	182.773
721.296	180.515
721.424	180.113
721.552	179.773
721.680	177.567
721.808	179.103
721.937	178.433
722.065	175.763
722.193	174.330
722.321	174.381
722.449	174.845
722.577	178.959
722.705	178.680
722.833	175.309
722.962	173.876
723.090	173.278
723.218	173.546
723.346	171.557
723.474	174.722
723.602	172.474
723.730	169.629
723.858	170.505
723.987	171.052
724.115	170.340
724.243	171.351
724.371	166.485
724.499	169.887
724.627	166.485
724.755	168.505
724.883	172.278
725.012	169.515
725.140	165.567
725.268	170.093
725.396	164.371
725.524	166.546
725.652	168.959
725.780	165.392
725.908	166.144
726.037	162.887
726.165	163.670
726.293	162.381
726.421	164.289
726.549	164.773
726.677	167.619
726.805	162.691
726.933	166.175
727.062	161.175
727.190	159.948
727.318	162.928
727.446	161.588
727.574	163.031
727.702	158.938
727.830	162.711
727.958	163.515
728.087	157.948
728.215	158.454
728.343	161.557
728.471	159.907
728.599	158.598
728.727	160.113
728.855	157.629
728.983	160.309
729.112	158.814
729.240	157.701
729.368	158.227
729.496	158.052
729.624	156.588
729.752	157.330
729.880	156.598
730.008	159.577
730.137	154.907
730.265	154.371
730.393	158.247
730.521	152.691
730.649	159.144
730.777	152.928
730.905	154.907
731.033	154.742
731.162	155.299
731.290	152.412
731.418	152.124
731.546	152.969
731.674	152.454
731.802	150.629
731.930	151.990
732.058	153.588
732.187	152.320
732.315	148.969
732.443	152.464
732.571	149.052
732.699	151.093
732.827	151.186
732.955	149.825
733.083	150.464
733.212	149.186
733.340	148.289
733.468	149.392
733.596	147.577
733.724	148.856
733.852	148.691
733.980	147.505
734.108	148.660
734.237	146.093
734.365	144.144
734.493	147.258
734.621	149.485
734.749	147.402
734.877	144.629
735.005	147.268
735.133	144.784
735.262	147.505
735.390	146.608
735.518	143.412
735.646	145.876
735.774	146.031
735.902	146.093
736.030	144.237
736.158	144.804
736.287	141.629
736.415	143.784
736.543	141.299
736.671	140.186
736.799	143.258
736.927	143.402
737.055	142.526
737.183	143.216
737.312	144.742
737.440	142.485
737.568	143.196
737.696	143.031
737.824	140.969
737.952	140.990
738.080	143.649
738.208	141.897
738.337	141.680
738.465	138.959
738.593	138.619
738.721	138.258
738.849	141.773
738.977	140.351
739.105	139.237
739.233	138.423
739.362	138.402
739.490	137.557
739.618	138.289
739.746	141.062
739.874	139.340
740.002	141.526
740.130	137.608
740.258	138.371
740.387	141.000
740.515	139.289
740.643	138.505
740.771	138.062
740.899	136.763
741.027	135.330
741.155	135.938
741.283	135.918
741.412	137.072
741.540	137.289
741.668	136.979
741.796	136.464
741.924	135.856
742.052	136.330
742.180	137.041
742.308	135.361
742.437	136.278
742.565	133.330
742.693	133.454
742.821	134.825
742.949	135.268
743.077	137.732
743.205	135.732
743.333	132.959
743.462	134.165
743.590	133.268
743.718	134.113
743.846	131.773
743.974	133.619
744.102	132.629
744.230	134.206
744.358	133.959
744.487	135.052
744.615	133.845
744.743	131.155
744.871	131.165
744.999	131.175
745.127	131.010
745.255	131.794
745.383	132.340
745.512	131.897
745.640	131.361
745.768	130.773
745.896	128.938
746.024	132.247
746.152	130.928
746.280	132.433
746.408	131.320
746.537	132.330
746.665	134.691
746.793	129.742
746.921	130.897
747.049	129.876
747.177	129.175
747.305	129.938
747.433	130.351
747.562	131.309
747.690	129.536
747.818	129.722
747.946	129.485
748.074	129.753
748.202	128.485
748.330	128.103
748.458	132.443
748.587	130.175
748.715	126.835
748.843	128.773
748.971	128.711
749.099	129.753
749.227	126.619
749.355	128.340
749.483	125.794
749.612	126.237
749.740	125.557
749.868	126.155
749.996	127.309
750.124	127.268
750.252	128.340
750.380	126.206
750.508	127.093
750.637	125.361
750.765	125.639
750.893	125.351
751.021	124.330
751.149	127.691
751.277	126.969
751.405	126.938
751.533	125.722
751.662	128.948
751.790	127.412
751.918	128.124
752.046	125.206
752.174	124.289
752.302	125.464
752.430	124.443
752.558	123.660
752.687	124.165
752.815	123.588
752.943	123.392
753.071	123.722
753.199	124.784
753.327	122.990
753.455	122.000
753.583	122.124
753.712	122.876
753.840	122.289
753.968	124.371
754.096	121.804
754.224	123.124
754.352	121.299
754.480	123.320
754.608	123.701
754.737	121.567
754.865	122.742
754.993	120.794
755.121	123.381
755.249	123.299
755.377	120.299
755.505	122.278
755.633	121.031
755.762	120.000
755.890	122.856
756.018	121.134
756.146	121.423
756.274	121.670
756.402	120.340
756.530	120.629
756.658	120.144
756.787	119.124
756.915	118.567
757.043	119.938
757.171	120.918
757.299	118.021
757.427	120.072
757.555	119.464
757.683	119.320
757.812	120.526
757.940	117.608
758.068	120.660
758.196	119.588
758.324	120.289
758.452	116.948
758.580	115.433
758.708	121.144
758.837	116.794
758.965	118.134
759.093	119.299
759.221	119.062
759.349	117.474
759.477	117.052
759.605	118.010
759.733	118.598
759.862	117.629
759.990	117.454
760.118	116.000
760.246	115.134
760.374	116.742
760.502	114.309
760.630	115.155
760.758	117.268
760.887	116.062
761.015	114.309
761.143	116.361
761.271	115.144
761.399	116.670
761.527	117.247
761.655	115.794
761.783	116.907
761.912	115.784
762.040	116.062
762.168	115.598
762.296	113.959
762.424	116.237
762.552	114.887
762.680	112.753
762.808	114.175
762.937	115.330
763.065	112.959
763.193	114.485
763.321	115.330
763.449	113.979
763.577	112.918
763.705	113.031
763.833	113.381
763.962	114.062
764.090	114.309
764.218	115.722
764.346	113.021
764.474	113.619
764.602	113.361
764.730	115.423
764.858	113.907
764.987	113.000
765.115	112.041
765.243	112.227
765.371	112.660
765.499	111.155
765.627	112.928
765.755	112.186
765.883	111.155
766.012	112.660
766.140	110.660
766.268	111.990
766.396	112.155
766.524	112.320
766.652	110.969
766.780	110.711
766.908	110.485
767.037	110.670
767.165	111.680
767.293	111.711
767.421	110.670
767.549	109.918
767.677	111.309
767.805	113.134
767.933	110.629
768.062	110.711
768.190	109.474
768.318	110.577
768.446	109.680
768.574	109.010
768.702	110.103
768.830	111.825
768.958	109.196
769.087	110.309
769.215	110.979
769.343	110.979
769.471	111.814
769.599	110.742
769.727	111.227
769.855	110.598
769.983	109.330
770.112	110.753
770.240	110.959
770.368	110.474
770.496	110.371
770.624	110.732
770.752	110.299
770.880	110.010
771.008	111.619
771.137	110.959
771.265	110.361
771.393	110.433
771.521	109.113
771.649	109.887
771.777	109.381
771.905	110.134
772.033	109.546
772.162	109.918
772.290	109.577
772.418	110.052
772.546	109.464
772.674	110.485
772.802	109.639
772.930	107.763
773.058	108.082
773.187	107.691
773.315	108.588
773.443	107.959
773.571	107.649
773.699	107.619
773.827	108.732
773.955	110.052
774.083	108.093
774.212	108.464
774.340	108.907
774.468	108.371
774.596	108.577
774.724	107.742
774.852	107.103
774.980	107.165
775.108	107.474
775.237	106.907
775.365	106.948
775.493	108.351
775.621	107.845
775.749	107.825
775.877	108.722
776.005	109.711
776.133	107.845
776.262	108.454
776.390	106.351
776.518	107.887
776.646	108.134
776.774	106.907
776.902	107.979
777.030	105.887
777.158	106.928
777.287	107.928
777.415	107.660
777.543	106.629
777.671	106.278
777.799	107.052
777.927	106.608
778.055	107.124
778.183	106.526
778.312	106.948
778.440	107.381
778.568	106.763
778.696	106.485
778.824	107.577
778.952	106.907
779.080	106.557
779.208	107.247
779.337	105.113
779.465	105.608
779.593	107.258
779.721	107.639
779.849	105.887
779.977	106.959
780.105	106.485
780.233	107.340
780.362	105.433
780.490	105.485
780.618	105.608
780.746	104.124
780.874	105.124
781.002	105.031
781.130	105.711
781.258	104.598
781.387	107.165
781.515	105.258
781.643	105.567
781.771	105.546
781.899	106.093
782.027	105.010
782.155	105.320
782.283	104.732
782.412	104.351
782.540	105.598
782.668	105.021
782.796	105.804
782.924	105.794
783.052	103.969
783.180	103.711
783.308	106.443
783.437	104.546
783.565	105.546
783.693	104.784
783.821	104.742
783.949	104.670
784.077	105.206
784.205	104.546
784.333	106.299
784.462	105.784
784.590	106.485
784.718	104.330
784.846	103.856
784.974	103.845
785.102	104.588
785.230	104.732
785.358	103.732
785.487	104.216
785.615	103.814
785.743	103.897
785.871	104.186
785.999	104.464
786.127	103.784
786.255	104.546
786.383	104.742
786.512	105.763
786.640	106.289
786.768	104.072
786.896	104.082
787.024	103.474
787.152	102.649
787.280	103.598
787.408	104.588
787.537	104.093
787.665	103.701
787.793	103.598
787.921	103.897
788.049	103.948
788.177	104.485
788.305	103.165
788.433	103.082
788.562	102.546
788.690	103.887
788.818	102.887
788.946	103.825
789.074	101.763
789.202	104.010
789.330	104.247
789.458	104.639
789.587	104.948
789.715	103.381
789.843	104.134
789.971	103.505
790.099	103.876
790.227	102.010
790.355	102.175
790.483	103.103
790.612	103.289
790.740	104.196
790.868	103.588
790.996	104.124
791.124	103.093
791.252	103.309
791.380	101.433
791.508	101.835
791.637	103.021
791.765	101.206
791.893	101.237
792.021	103.031
792.149	102.639
792.277	103.278
792.405	104.144
792.533	104.082
792.662	102.670
792.790	103.392
792.918	104.155
793.046	101.680
793.174	102.443
793.302	103.299
793.430	104.186
793.558	103.907
793.687	102.887
793.815	102.567
793.943	103.598
794.071	101.948
794.199	101.371
794.327	102.206
794.455	102.526
794.583	102.216
794.712	103.082
794.840	101.041
794.968	102.546
795.096	101.907
795.224	102.557
795.352	102.660
795.480	102.876
795.608	103.990
795.737	104.918
795.865	102.969
795.993	102.454
796.121	103.660
796.249	102.732
796.377	103.103
796.505	102.567
796.633	102.928
796.762	103.979
796.890	104.392
797.018	103.237
797.146	102.773
797.274	100.629
797.402	100.938
797.530	102.351
797.658	102.464
797.787	102.680
797.915	102.227
798.043	101.588
798.171	102.567
798.299	102.268
798.427	102.103
798.555	101.268
798.683	101.433
798.812	101.526
798.940	100.361
799.068	101.660
799.196	103.010
799.324	101.969
799.452	100.959
799.580	100.546
799.708	102.340
799.837	101.608
799.965	101.351
800.093	101.598
800.221	102.392
800.349	103.113
800.477	101.887
800.605	101.515
800.733	101.753
800.862	102.732
800.990	101.546
801.118	100.608
801.246	99.608
801.374	100.186
801.502	101.608
801.630	100.856
801.758	100.351
801.887	100.320
802.015	100.052
802.143	100.464
802.271	100.814
802.399	101.794
802.527	101.639
802.655	102.041
802.783	100.423
802.912	102.495
803.040	101.897
803.168	100.742
803.296	101.753
803.424	101.485
803.552	100.732
803.680	100.237
803.808	100.381
803.937	101.062
804.065	102.155
804.193	100.361
804.321	99.856
804.449	100.928
804.577	100.495
804.705	101.505
804.833	99.711
804.962	99.773
805.090	99.918
805.218	101.423
805.346	101.381
805.474	102.619
805.602	100.928
805.730	100.629
805.858	100.557
805.987	99.742
806.115	101.546
806.243	99.825
806.371	100.753
806.499	101.124
806.627	101.309
806.755	100.371
806.883	100.845
807.012	101.072
807.140	100.835
807.268	98.897
807.396	101.196
807.524	99.835
807.652	100.876
807.780	101.351
807.908	100.680
808.037	100.588
808.165	101.216
808.293	99.918
808.421	100.371
808.549	99.845
808.677	99.804
808.805	100.464
808.933	100.495
809.062	99.856
809.190	100.392
809.318	100.722
809.446	99.948
809.574	99.773
809.702	100.711
809.830	100.526
809.958	99.577
810.087	98.701
810.215	101.866
810.343	101.722
810.471	101.969
810.599	99.268
810.727	101.320
810.855	100.103
810.983	101.876
811.112	101.155
811.240	99.351
811.368	100.845
811.496	100.856
811.624	101.495
811.752	100.381
811.880	100.258
812.008	100.711
812.137	99.722
812.265	100.175
812.393	99.247
812.521	101.010
812.649	99.526
812.777	100.144
812.905	99.454
813.033	99.124
813.162	99.134
813.290	101.619
813.418	99.237
813.546	100.577
813.674	100.340
813.802	99.206
813.930	98.454
814.058	98.588
814.187	99.660
814.315	100.320
814.443	100.082
814.571	98.969
814.699	100.495
814.827	99.959
814.955	100.134
815.083	100.330
815.212	99.763
815.340	99.546
815.468	99.165
815.596	99.041
815.724	100.289
815.852	99.536
815.980	99.825
816.108	99.485
816.237	99.268
816.365	99.856
816.493	98.897
816.621	98.794
816.749	100.031
816.877	99.598
817.005	99.670
817.133	100.794
817.262	100.753
817.390	100.701
817.518	100.052
817.646	98.598
817.774	99.361
817.902	100.320
818.030	99.010
818.158	101.186
818.287	99.907
818.415	98.959
818.543	99.186
818.671	99.701
818.799	99.938
818.927	98.361
819.055	99.330
819.183	99.649
819.312	99.320
819.440	99.619
819.568	99.938
819.696	99.701
819.824	99.526
819.952	98.371
820.080	98.825
820.208	98.062
820.337	99.299
820.465	99.031
820.593	99.093
820.721	100.711
820.849	98.000
820.977	99.062
821.105	101.093
821.233	99.237
821.362	98.938
821.490	99.619
821.618	99.082
821.746	97.784
821.874	98.113
822.002	98.567
822.130	98.887
822.258	98.660
822.387	97.598
822.515	98.979
822.643	99.351
822.771	98.330
822.899	98.866
823.027	99.546
823.155	98.268
823.283	97.680
823.412	99.495
823.540	99.144
823.668	99.814
823.796	98.928
823.924	99.598
824.052	98.464
824.180	98.000
824.308	99.845
824.437	98.041
824.565	98.144
824.693	98.845
824.821	98.515
824.949	98.938
825.077	98.309
825.205	98.351
825.333	98.103
825.462	99.093
825.590	98.134
825.718	98.340
825.846	99.515
825.974	98.526
826.102	99.227
826.230	98.835
826.358	98.505
826.487	98.670
826.615	98.041
826.743	99.216
826.871	99.093
826.999	99.928
827.127	99.010
827.255	98.113
827.383	98.381
827.512	98.186
827.640	99.608
827.768	98.990
827.896	99.887
828.024	97.897
828.152	98.093
828.280	99.392
828.408	99.351
828.537	99.021
828.665	98.000
828.793	99.155
828.921	98.495
829.049	98.216
829.177	97.691
829.305	99.784
829.433	98.093
829.562	97.351
829.690	98.351
829.818	97.825
829.946	97.649
830.074	97.124
830.202	99.897
830.330	97.412
830.458	98.351
830.587	98.722
830.715	98.722
830.843	98.299
830.971	98.495
831.099	96.856
831.227	98.021
831.355	98.062
831.483	98.918
831.612	99.423
831.740	99.454
831.868	98.361
831.996	98.526
832.124	100.835
832.252	98.557
832.380	98.381
832.508	98.072
832.637	97.577
832.765	99.701
832.893	98.732
833.021	97.639
833.149	99.381
833.277	99.515
833.405	99.062
833.533	98.423
833.662	99.351
833.790	98.216
833.918	99.010
834.046	97.959
834.174	99.557
834.302	99.021
834.430	97.907
834.558	98.381
834.687	99.598
834.815	98.773
834.943	98.588
835.071	97.990
835.199	97.680
835.327	98.536
835.455	98.103
835.583	99.103
835.712	98.897
835.840	97.320
835.968	98.010
836.096	97.381
836.224	98.175
836.352	98.639
836.480	98.814
836.608	98.258
836.737	99.722
836.865	98.887
836.993	98.711
837.121	99.299
837.249	99.052
837.377	98.907
837.505	98.412
837.633	98.660
837.762	97.784
837.890	98.598
838.018	97.072
838.146	97.351
838.274	97.485
838.402	100.124
838.530	97.753
838.658	97.485
838.787	98.052
838.915	97.825
839.043	98.670
839.171	98.247
839.299	98.103
839.427	98.309
839.555	100.021
839.683	99.062
839.812	99.165
839.940	98.505
840.068	98.433
840.196	98.629
840.324	98.526
840.452	98.464
840.580	97.423
840.708	97.041
840.837	98.691
840.965	99.701
841.093	99.124
841.221	98.959
841.349	99.206
841.477	100.206
841.605	97.175
841.733	96.732
841.862	100.206
841.990	97.144
842.118	98.186
842.246	97.959
842.374	98.041
842.502	98.897
842.630	98.464
842.758	98.608
842.887	96.670
843.015	98.732
843.143	97.866
843.271	98.804
843.399	98.907
843.527	98.722
843.655	98.753
843.783	98.938
843.912	98.876
844.040	98.907
844.168	100.165
844.296	100.330
844.424	99.072
844.552	98.474
844.680	97.835
844.808	99.144
844.937	98.784
845.065	99.010
845.193	99.320
845.321	97.598
845.449	98.340
845.577	98.495
845.705	98.175
845.833	99.423
845.962	99.124
846.090	98.175
846.218	97.392
846.346	99.670
846.474	97.588
846.602	98.588
846.730	98.052
846.858	98.000
846.987	98.113
847.115	99.577
847.243	98.485
847.371	99.464
847.499	96.918
847.627	98.371
847.755	97.784
847.883	97.113
848.012	98.381
848.140	99.814
848.268	98.536
848.396	98.680
848.524	99.186
848.652	98.959
848.780	96.959
848.908	99.423
849.037	98.577
849.165	98.784
849.293	96.835
849.421	99.196
849.549	98.196
849.677	97.155
849.805	98.887
849.933	99.711
850.062	98.928
850.190	98.278
850.318	98.258
850.446	98.711
850.574	98.402
850.702	98.258
850.830	97.124
850.958	98.031
851.087	99.299
851.215	99.289
851.343	98.021
851.471	97.876
851.599	98.361
851.727	97.639
851.855	98.371
851.983	97.361
852.112	98.330
852.240	99.629
852.368	99.454
852.496	98.639
852.624	98.124
852.752	96.990
852.880	98.021
853.008	98.577
853.137	99.526
853.265	98.082
853.393	98.062
853.521	97.866
853.649	98.526
853.777	98.041
853.905	98.093
854.033	97.732
854.162	96.969
854.290	98.753
854.418	97.412
854.546	97.660
854.674	99.052
854.802	97.062
854.930	96.907
855.058	97.474
855.187	98.206
855.315	98.175
855.443	99.320
855.571	98.505
855.699	98.866
855.827	98.134
855.955	97.866
856.083	97.577
856.212	98.433
856.340	97.742
856.468	98.948
856.596	97.773
856.724	96.443
856.852	98.454
856.980	97.330
857.108	98.124
857.237	98.557
857.365	96.691
857.493	98.031
857.621	97.546
857.749	98.278
857.877	97.443
858.005	98.371
858.133	97.021
858.262	97.495
858.390	99.247
858.518	97.866
858.646	98.371
858.774	99.299
858.902	97.773
859.030	98.237
859.158	98.454
859.287	97.278
859.415	96.835
859.543	97.485
859.671	98.072
859.799	98.505
859.927	98.082
860.055	99.155
860.183	97.227
860.312	97.887
860.440	97.268
860.568	99.227
860.696	98.598
860.824	98.526
860.952	97.464
861.080	97.856
861.208	99.134
861.337	97.278
861.465	97.371
861.593	98.629
861.721	98.773
861.849	97.361
861.977	96.144
862.105	98.010
862.233	98.010
862.362	97.897
862.490	97.773
862.618	98.031
862.746	98.887
862.874	99.237
863.002	98.526
863.130	97.918
863.258	99.526
863.387	98.351
863.515	98.515
863.643	98.186
863.771	98.186
863.899	99.165
864.027	98.464
864.155	98.155
864.283	97.784
864.412	99.309
864.540	98.691
864.668	98.206
864.796	99.155
864.924	98.144
865.052	97.505
865.180	98.474
865.308	98.103
865.437	97.959
865.565	98.361
865.693	98.598
865.821	99.237
865.949	99.062
866.077	100.371
866.205	97.794
866.333	97.691
866.462	98.062
866.590	98.526
866.718	97.371
866.846	99.763
866.974	98.474
867.102	98.196
867.230	97.577
867.358	98.299
867.487	97.918
867.615	98.227
867.743	98.959
867.871	98.990
867.999	98.371
868.127	99.216
868.255	99.351
868.383	99.629
868.512	99.711
868.640	98.845
868.768	99.784
868.896	97.670
869.024	98.825
869.152	98.742
869.280	98.887
869.408	99.680
869.537	97.711
869.665	98.402
869.793	98.732
869.921	97.825
870.049	99.763
870.177	99.918
870.305	99.206
870.433	99.381
870.562	98.320
870.690	98.320
870.818	99.412
870.946	98.464
871.074	97.557
871.202	97.371
871.330	99.186
871.458	99.237
871.587	98.629
871.715	97.351
871.843	99.258
871.971	99.464
872.099	96.928
872.227	98.175
872.355	97.887
872.483	98.505
872.612	99.443
872.740	97.392
872.868	98.773
872.996	98.052
873.124	97.897
873.252	100.052
873.380	97.938
873.508	99.155
873.637	99.278
873.765	98.660
873.893	98.845
874.021	99.072
874.149	99.722
874.277	98.753
874.405	99.124
874.533	99.773
874.662	97.928
874.790	97.031
874.918	98.866
875.046	97.454
875.174	97.907
875.302	98.546
875.430	98.402
875.558	98.505
875.687	98.186
875.815	100.536
875.943	97.928
876.071	99.557
876.199	99.670
876.327	98.052
876.455	99.608
876.583	98.505
876.712	98.866
876.840	98.371
876.968	100.124
877.096	99.289
877.224	99.763
877.352	98.412
877.480	98.309
877.608	98.557
877.737	98.814
877.865	96.918
877.993	99.454
878.121	98.670
878.249	99.124
878.377	98.784
878.505	98.082
878.633	99.031
878.762	100.278
878.890	98.186
879.018	97.588
879.146	98.258
879.274	97.928
879.402	98.990
879.530	97.794
879.658	99.309
879.787	98.103
879.915	98.588
880.043	98.897
880.171	98.082
880.299	99.093
880.427	99.278
880.555	99.990
880.683	99.216
880.812	99.495
880.940	97.784
881.068	98.691
881.196	98.804
881.324	100.505
881.452	98.474
881.580	98.371
881.708	97.979
881.837	98.423
881.965	97.557
882.093	98.515
882.221	98.629
882.349	97.691
882.477	99.412
882.605	100.144
882.733	98.495
882.862	99.505
882.990	97.753
883.118	99.402
883.246	99.165
883.374	100.794
883.502	97.763
883.630	100.722
883.758	99.773
883.887	99.423
884.015	99.711
884.143	99.876
884.271	99.608
884.399	98.258
884.527	99.433
884.655	98.845
884.783	99.371
884.912	100.289
885.040	98.423
885.168	98.835
885.296	98.711
885.424	98.433
885.552	99.227
885.680	98.268
885.808	97.959
885.937	99.773
886.065	97.691
886.193	98.979
886.321	99.856
886.449	99.062
886.577	98.722
886.705	99.165
886.833	99.330
886.962	99.588
887.090	97.990
887.218	99.371
887.346	97.515
887.474	99.309
887.602	99.577
887.730	97.629
887.858	98.423
887.987	97.660
888.115	98.979
888.243	100.361
888.371	99.990
888.499	100.010
888.627	98.866
888.755	99.278
888.883	99.402
889.012	98.423
889.140	97.196
889.268	98.381
889.396	97.773
889.524	98.268
889.652	98.175
889.780	98.856
889.908	98.289
890.037	98.753
890.165	97.340
890.293	99.258
890.421	99.371
890.549	99.371
890.677	98.371
890.805	99.237
890.933	98.546
891.062	99.113
891.190	99.381
891.318	100.577
891.446	99.990
891.574	99.474
891.702	98.649
891.830	99.371
891.958	98.887
892.087	99.825
892.215	99.536
892.343	101.093
892.471	98.165
892.599	99.701
892.727	100.103
892.855	99.474
892.983	99.021
893.112	99.041
893.240	99.144
893.368	100.093
893.496	100.505
893.624	99.072
893.752	99.052
893.880	98.082
894.008	98.423
894.137	99.206
894.265	100.010
894.393	99.825
894.521	98.216
894.649	99.041
894.777	98.464
894.905	98.526
895.033	101.495
895.162	99.619
895.290	98.907
895.418	99.113
895.546	100.320
895.674	98.639
895.802	98.732
895.930	98.866
896.058	98.979
896.187	100.649
896.315	100.763
896.443	99.608
896.571	99.340
896.699	100.021
896.827	99.784
896.955	99.103
897.083	99.454
897.212	100.845
897.340	98.897
897.468	98.433
897.596	98.608
897.724	98.371
897.852	98.928
897.980	99.082
898.108	99.268
898.237	98.412
898.365	99.577
898.493	99.443
898.621	99.155
898.749	98.794
898.877	98.784
899.005	99.144
899.133	100.247
899.262	99.608
899.390	98.680
899.518	99.093
899.646	98.959
899.774	100.474
899.902	98.969
900.030	99.588
900.158	99.784
900.287	98.825
900.415	99.010
900.543	100.041
900.671	100.392
900.799	100.144
900.927	99.454
901.055	98.330
901.183	99.856
901.312	100.474
901.440	100.361
901.568	99.928
901.696	99.784
901.824	99.103
901.952	100.845
902.080	98.814
902.208	98.320
902.337	100.031
902.465	99.742
902.593	100.856
902.721	100.474
902.849	100.485
902.977	100.351
903.105	98.990
903.233	99.897
903.362	100.835
903.490	99.340
903.618	99.031
903.746	98.732
903.874	99.526
904.002	100.443
904.130	99.990
904.258	99.732
904.387	99.124
904.515	98.763
904.643	100.577
904.771	100.577
904.899	99.495
905.027	100.072
905.155	97.784
905.283	99.814
905.412	99.773
905.540	99.928
905.668	99.474
905.796	97.763
905.924	99.577
906.052	100.258
906.180	100.588
906.308	99.103
906.437	98.227
906.565	100.443
906.693	99.381
906.821	98.082
906.949	100.505
907.077	98.351
907.205	101.021
907.333	98.536
907.462	101.165
907.590	100.402
907.718	99.052
907.846	99.588
907.974	100.804
908.102	100.165
908.230	97.897
908.358	97.526
908.487	98.495
908.615	99.959
908.743	100.753
908.871	100.402
908.999	99.546
909.127	99.247
909.255	98.928
909.383	99.361
909.512	99.701
909.640	99.876
909.768	99.567
909.896	100.546
910.024	100.134
910.152	99.464
910.280	99.711
910.408	100.990
910.537	100.918
910.665	99.464
910.793	100.196
910.921	100.598
911.049	100.351
911.177	99.268
911.305	100.536
911.433	100.299
911.562	100.206
911.690	99.711
911.818	101.031
911.946	99.969
912.074	100.722
912.202	99.773
912.330	99.505
912.458	99.732
912.587	99.588
912.715	99.887
912.843	100.722
912.971	100.825
913.099	99.918
913.227	100.918
913.355	101.732
913.483	100.546
913.612	101.082
913.740	100.649
913.868	100.619
