sample13v_at_750.00nm_cut_at_1060.50Y_01.dat
19.06.2023
11:20:34
cut middle at Y: 1060.50
top cursor: 1109 down cursor: 1012 mean of: 97 lines , 2560 datapoints
wavelength(nm)	intensity[arb. units]
585.996	756.000
586.124	725.289
586.252	716.835
586.380	721.722
586.508	715.526
586.637	724.588
586.765	722.423
586.893	720.062
587.021	724.845
587.149	722.041
587.277	725.330
587.405	725.010
587.533	721.103
587.662	720.856
587.790	723.175
587.918	727.691
588.046	726.227
588.174	724.103
588.302	731.423
588.430	719.103
588.558	730.361
588.687	727.278
588.815	736.845
588.943	733.598
589.071	730.938
589.199	725.454
589.327	720.629
589.455	719.938
589.583	717.165
589.712	727.103
589.840	726.866
589.968	730.557
590.096	732.474
590.224	731.701
590.352	728.907
590.480	726.670
590.608	741.639
590.737	721.031
590.865	724.959
590.993	730.412
591.121	724.340
591.249	722.784
591.377	725.948
591.505	716.392
591.633	718.732
591.762	734.289
591.890	723.608
592.018	728.691
592.146	723.897
592.274	722.753
592.402	718.670
592.530	725.340
592.658	727.206
592.787	731.371
592.915	732.526
593.043	725.546
593.171	734.784
593.299	726.742
593.427	738.856
593.555	730.113
593.683	737.567
593.812	731.041
593.940	730.082
594.068	737.206
594.196	751.485
594.324	738.515
594.452	746.443
594.580	742.010
594.708	755.598
594.837	758.443
594.965	749.443
595.093	753.278
595.221	751.990
595.349	757.402
595.477	758.732
595.605	760.608
595.733	762.351
595.862	766.392
595.990	764.227
596.118	769.381
596.246	763.598
596.374	767.979
596.502	772.505
596.630	773.010
596.758	768.495
596.887	777.711
597.015	770.052
597.143	769.660
597.271	773.536
597.399	772.866
597.527	767.691
597.655	774.660
597.783	773.268
597.912	762.320
598.040	779.186
598.168	771.526
598.296	767.866
598.424	763.773
598.552	769.619
598.680	770.557
598.808	763.443
598.937	775.897
599.065	770.918
599.193	765.464
599.321	764.361
599.449	770.247
599.577	768.021
599.705	761.113
599.833	763.433
599.962	759.309
600.090	769.649
600.218	760.021
600.346	769.052
600.474	768.144
600.602	765.485
600.730	758.784
600.858	772.660
600.987	761.938
601.115	768.093
601.243	771.969
601.371	773.351
601.499	778.979
601.627	776.608
601.755	774.876
601.883	767.866
602.012	781.186
602.140	782.000
602.268	783.052
602.396	777.299
602.524	786.052
602.652	785.361
602.780	783.959
602.908	782.392
603.037	786.918
603.165	793.670
603.293	801.361
603.421	805.825
603.549	799.773
603.677	805.990
603.805	804.021
603.933	813.186
604.062	807.392
604.190	813.897
604.318	822.814
604.446	815.010
604.574	824.351
604.702	819.948
604.830	825.392
604.958	820.701
605.087	840.165
605.215	832.361
605.343	836.155
605.471	840.546
605.599	836.021
605.727	830.113
605.855	839.320
605.983	833.660
606.112	849.670
606.240	851.711
606.368	854.103
606.496	852.227
606.624	850.918
606.752	849.959
606.880	847.598
607.008	851.825
607.137	851.835
607.265	852.835
607.393	859.711
607.521	847.773
607.649	860.515
607.777	847.938
607.905	853.794
608.033	861.124
608.162	852.897
608.290	854.557
608.418	855.680
608.546	858.320
608.674	868.505
608.802	852.000
608.930	858.629
609.058	850.412
609.187	852.000
609.315	849.701
609.443	853.536
609.571	854.309
609.699	851.753
609.827	853.237
609.955	849.052
610.083	853.887
610.212	853.763
610.340	861.979
610.468	849.608
610.596	855.082
610.724	850.021
610.852	857.041
610.980	852.031
611.108	847.742
611.237	861.608
611.365	852.134
611.493	858.299
611.621	851.093
611.749	861.691
611.877	858.701
612.005	862.258
612.133	862.010
612.262	852.588
612.390	862.979
612.518	867.299
612.646	861.041
612.774	855.814
612.902	868.979
613.030	867.619
613.158	872.309
613.287	880.010
613.415	880.010
613.543	877.206
613.671	882.845
613.799	888.773
613.927	884.062
614.055	888.536
614.183	900.485
614.312	886.990
614.440	893.876
614.568	893.474
614.696	900.134
614.824	908.340
614.952	900.309
615.080	909.175
615.208	907.371
615.337	918.464
615.465	914.753
615.593	918.258
615.721	919.680
615.849	913.701
615.977	915.134
616.105	919.619
616.233	918.340
616.362	926.062
616.490	920.134
616.618	931.825
616.746	926.082
616.874	929.969
617.002	931.216
617.130	933.082
617.258	928.237
617.387	936.237
617.515	921.021
617.643	927.845
617.771	937.052
617.899	931.722
618.027	930.897
618.155	934.515
618.283	933.247
618.412	939.969
618.540	940.278
618.668	939.856
618.796	939.299
618.924	933.258
619.052	943.753
619.180	936.196
619.308	947.608
619.437	939.515
619.565	939.536
619.693	945.010
619.821	949.825
619.949	938.464
620.077	951.464
620.205	945.598
620.333	944.443
620.462	951.876
620.590	954.918
620.718	947.175
620.846	945.619
620.974	951.897
621.102	944.876
621.230	947.670
621.358	950.031
621.487	952.175
621.615	945.227
621.743	959.134
621.871	955.691
621.999	944.897
622.127	951.361
622.255	945.691
622.383	948.773
622.512	955.134
622.640	943.938
622.768	949.227
622.896	954.340
623.024	947.062
623.152	953.113
623.280	952.031
623.408	954.639
623.537	951.289
623.665	959.794
623.793	952.392
623.921	942.990
624.049	951.000
624.177	961.588
624.305	949.814
624.433	959.196
624.562	953.557
624.690	952.268
624.818	954.433
624.946	951.371
625.074	945.423
625.202	957.948
625.330	944.062
625.458	952.918
625.587	948.959
625.715	954.505
625.843	947.629
625.971	952.959
626.099	953.134
626.227	954.278
626.355	956.474
626.483	958.052
626.612	950.258
626.740	956.165
626.868	957.175
626.996	959.866
627.124	961.021
627.252	951.464
627.380	955.742
627.508	960.010
627.637	959.773
627.765	964.660
627.893	970.062
628.021	958.619
628.149	970.175
628.277	966.938
628.405	974.381
628.533	966.216
628.662	966.990
628.790	974.845
628.918	976.206
629.046	985.031
629.174	971.474
629.302	979.052
629.430	981.536
629.558	985.959
629.687	986.670
629.815	985.165
629.943	980.660
630.071	986.732
630.199	996.660
630.327	985.186
630.455	984.454
630.583	991.742
630.712	992.557
630.840	994.907
630.968	995.629
631.096	1004.495
631.224	998.670
631.352	1002.619
631.480	995.000
631.608	999.876
631.737	996.268
631.865	1018.433
631.993	1012.206
632.121	1004.629
632.249	1011.959
632.377	1022.691
632.505	1000.351
632.633	1006.113
632.762	1015.155
632.890	1011.113
633.018	1009.093
633.146	1013.588
633.274	1008.639
633.402	1003.660
633.530	1007.423
633.658	1011.938
633.787	1003.732
633.915	1004.701
634.043	1004.474
634.171	1009.897
634.299	1016.526
634.427	1005.866
634.555	1014.536
634.683	1000.907
634.812	1013.392
634.940	1010.918
635.068	998.619
635.196	1004.763
635.324	1014.649
635.452	1010.175
635.580	1009.938
635.708	1003.969
635.837	1001.433
635.965	995.515
636.093	992.866
636.221	999.000
636.349	997.835
636.477	996.206
636.605	999.258
636.733	988.794
636.862	988.845
636.990	999.124
637.118	993.990
637.246	989.186
637.374	991.072
637.502	988.629
637.630	989.598
637.758	991.412
637.887	996.959
638.015	987.247
638.143	994.443
638.271	992.588
638.399	990.907
638.527	990.546
638.655	988.340
638.783	984.340
638.912	985.660
639.040	989.247
639.168	982.423
639.296	994.907
639.424	987.134
639.552	1002.918
639.680	992.454
639.808	985.464
639.937	976.763
640.065	978.557
640.193	985.515
640.321	982.268
640.449	985.361
640.577	990.763
640.705	982.124
640.833	986.186
640.962	994.505
641.090	987.722
641.218	989.361
641.346	984.546
641.474	988.134
641.602	994.897
641.730	992.887
641.858	989.938
641.987	998.495
642.115	987.938
642.243	998.041
642.371	994.784
642.499	992.485
642.627	995.577
642.755	995.165
642.883	1001.155
643.012	998.031
643.140	1006.505
643.268	995.701
643.396	1001.887
643.524	999.485
643.652	999.887
643.780	1001.928
643.908	1008.670
644.037	998.330
644.165	997.330
644.293	996.216
644.421	1008.299
644.549	1010.454
644.677	1009.680
644.805	1015.845
644.933	1004.186
645.062	1013.340
645.190	1006.206
645.318	1007.969
645.446	1022.763
645.574	1017.485
645.702	1009.938
645.830	1015.979
645.958	1025.062
646.087	1009.835
646.215	1005.773
646.343	1022.072
646.471	1021.031
646.599	1011.144
646.727	1011.670
646.855	1012.732
646.983	1008.072
647.112	1026.639
647.240	1024.897
647.368	1006.144
647.496	1018.124
647.624	1011.557
647.752	1011.753
647.880	1016.371
648.008	1012.258
648.137	1007.990
648.265	1007.299
648.393	1009.299
648.521	1003.062
648.649	1001.299
648.777	1008.124
648.905	1007.062
649.033	993.113
649.162	995.258
649.290	995.515
649.418	993.113
649.546	999.072
649.674	1007.021
649.802	995.845
649.930	996.392
650.058	997.330
650.187	990.000
650.315	998.588
650.443	990.876
650.571	995.979
650.699	990.278
650.827	1004.072
650.955	997.289
651.083	1000.691
651.212	987.392
651.340	990.124
651.468	994.443
651.596	987.196
651.724	982.526
651.852	984.000
651.980	987.278
652.108	993.588
652.237	987.206
652.365	974.691
652.493	981.619
652.621	981.660
652.749	983.918
652.877	977.454
653.005	977.289
653.133	985.948
653.262	976.969
653.390	978.784
653.518	973.144
653.646	969.340
653.774	975.629
653.902	986.351
654.030	978.351
654.158	960.577
654.287	974.948
654.415	966.629
654.543	964.588
654.671	963.247
654.799	961.309
654.927	963.722
655.055	962.351
655.183	962.887
655.312	954.392
655.440	954.495
655.568	956.814
655.696	957.691
655.824	962.804
655.952	960.835
656.080	956.155
656.208	962.804
656.337	950.557
656.465	951.608
656.593	953.072
656.721	950.454
656.849	953.598
656.977	955.227
657.105	958.660
657.233	945.990
657.362	955.402
657.490	950.742
657.618	954.144
657.746	948.010
657.874	940.216
658.002	947.969
658.130	942.021
658.258	940.536
658.387	949.557
658.515	932.072
658.643	947.876
658.771	945.536
658.899	936.216
659.027	938.196
659.155	938.402
659.283	934.660
659.412	935.289
659.540	933.732
659.668	936.392
659.796	928.206
659.924	930.103
660.052	929.361
660.180	920.876
660.308	935.464
660.437	922.113
660.565	916.474
660.693	919.598
660.821	921.753
660.949	920.773
661.077	913.557
661.205	915.144
661.333	919.278
661.462	925.979
661.590	915.495
661.718	916.887
661.846	910.711
661.974	916.969
662.102	909.691
662.230	912.928
662.358	911.464
662.487	910.072
662.615	912.186
662.743	913.072
662.871	910.041
662.999	908.887
663.127	913.495
663.255	901.732
663.383	918.072
663.512	914.423
663.640	912.289
663.768	902.804
663.896	906.247
664.024	909.031
664.152	903.247
664.280	913.155
664.408	907.557
664.537	914.351
664.665	910.536
664.793	900.814
664.921	896.340
665.049	898.990
665.177	905.753
665.305	903.351
665.433	894.670
665.562	897.835
665.690	906.402
665.818	893.845
665.946	903.454
666.074	909.082
666.202	904.196
666.330	900.701
666.458	893.670
666.587	898.000
666.715	901.887
666.843	903.361
666.971	894.227
667.099	907.577
667.227	904.330
667.355	903.887
667.483	898.010
667.612	909.381
667.740	892.330
667.868	900.732
667.996	891.742
668.124	897.804
668.252	891.608
668.380	890.289
668.508	901.680
668.637	891.784
668.765	892.052
668.893	897.113
669.021	890.247
669.149	882.062
669.277	885.959
669.405	882.227
669.533	887.598
669.662	884.124
669.790	877.577
669.918	893.866
670.046	879.670
670.174	879.866
670.302	888.082
670.430	865.722
670.558	871.680
670.687	874.155
670.815	874.237
670.943	873.753
671.071	869.876
671.199	879.804
671.327	860.598
671.455	860.495
671.583	862.897
671.712	862.412
671.840	853.804
671.968	858.010
672.096	864.485
672.224	851.546
672.352	851.732
672.480	848.505
672.608	848.722
672.737	848.340
672.865	850.082
672.993	846.423
673.121	838.887
673.249	834.381
673.377	840.237
673.505	841.753
673.633	835.918
673.762	833.289
673.890	831.082
674.018	832.144
674.146	826.866
674.274	829.093
674.402	826.371
674.530	826.526
674.658	824.948
674.787	812.907
674.915	816.546
675.043	813.753
675.171	819.031
675.299	814.320
675.427	814.031
675.555	806.186
675.683	814.216
675.812	794.938
675.940	796.711
676.068	791.010
676.196	792.371
676.324	794.722
676.452	797.969
676.580	787.237
676.708	785.670
676.837	794.979
676.965	787.887
677.093	791.691
677.221	780.732
677.349	777.495
677.477	772.289
677.605	770.216
677.733	778.845
677.862	774.155
677.990	773.608
678.118	766.000
678.246	765.969
678.374	763.351
678.502	771.845
678.630	759.969
678.758	758.804
678.887	757.330
679.015	762.144
679.143	750.495
679.271	759.474
679.399	758.155
679.527	751.876
679.655	752.753
679.783	750.113
679.912	742.670
680.040	747.103
680.168	750.423
680.296	746.237
680.424	746.588
680.552	744.454
680.680	741.784
680.808	736.794
680.937	736.237
681.065	734.536
681.193	736.742
681.321	734.041
681.449	734.392
681.577	725.433
681.705	730.144
681.833	731.959
681.962	729.165
682.090	723.876
682.218	726.784
682.346	720.856
682.474	723.588
682.602	731.206
682.730	718.598
682.858	724.814
682.987	723.433
683.115	718.629
683.243	726.804
683.371	723.680
683.499	718.680
683.627	727.402
683.755	715.876
683.883	709.485
684.012	712.959
684.140	716.814
684.268	711.619
684.396	715.763
684.524	717.021
684.652	713.320
684.780	724.103
684.908	717.990
685.037	707.041
685.165	708.557
685.293	715.196
685.421	718.546
685.549	703.856
685.677	710.289
685.805	708.381
685.933	704.680
686.062	705.722
686.190	706.216
686.318	704.856
686.446	709.093
686.574	703.258
686.702	700.557
686.830	707.433
686.958	698.505
687.087	709.969
687.215	696.825
687.343	698.278
687.471	690.103
687.599	696.031
687.727	690.134
687.855	688.990
687.983	686.041
688.112	687.093
688.240	682.598
688.368	689.144
688.496	692.247
688.624	681.247
688.752	684.320
688.880	679.186
689.008	679.062
689.137	681.546
689.265	677.103
689.393	680.485
689.521	669.897
689.649	682.680
689.777	669.454
689.905	677.206
690.033	677.990
690.162	666.794
690.290	666.619
690.418	666.814
690.546	664.938
690.674	667.309
690.802	667.175
690.930	662.227
691.058	660.155
691.187	659.495
691.315	660.691
691.443	661.237
691.571	659.000
691.699	644.856
691.827	647.887
691.955	647.660
692.083	644.680
692.212	642.990
692.340	645.804
692.468	642.155
692.596	640.567
692.724	640.000
692.852	634.485
692.980	644.155
693.108	630.907
693.237	630.258
693.365	631.526
693.493	624.680
693.621	625.206
693.749	626.041
693.877	618.000
694.005	618.608
694.133	624.371
694.262	613.825
694.390	618.031
694.518	608.113
694.646	614.041
694.774	613.454
694.902	609.856
695.030	615.309
695.158	601.876
695.287	601.577
695.415	604.608
695.543	602.186
695.671	602.546
695.799	597.371
695.927	597.557
696.055	593.247
696.183	599.876
696.312	593.557
696.440	588.062
696.568	594.134
696.696	584.876
696.824	584.000
696.952	592.629
697.080	579.381
697.208	588.186
697.337	580.010
697.465	575.495
697.593	581.804
697.721	579.186
697.849	575.701
697.977	568.918
698.105	576.680
698.233	572.526
698.362	570.753
698.490	568.309
698.618	568.021
698.746	569.691
698.874	567.443
699.002	564.938
699.130	551.825
699.258	558.268
699.387	559.918
699.515	557.866
699.643	560.701
699.771	550.495
699.899	552.371
700.027	546.278
700.155	556.258
700.283	551.093
700.412	544.216
700.540	543.031
700.668	543.412
700.796	539.722
700.924	543.082
701.052	543.639
701.180	541.454
701.308	533.794
701.437	532.165
701.565	531.680
701.693	529.186
701.821	530.763
701.949	528.309
702.077	524.124
702.205	524.299
702.333	523.124
702.462	521.959
702.590	516.216
702.718	513.216
702.846	511.907
702.974	514.722
703.102	513.371
703.230	511.330
703.358	506.237
703.487	506.577
703.615	510.186
703.743	498.175
703.871	505.165
703.999	503.835
704.127	493.804
704.255	499.392
704.383	493.052
704.512	483.907
704.640	481.608
704.768	484.381
704.896	484.371
705.024	479.959
705.152	482.041
705.280	486.433
705.408	480.670
705.537	482.412
705.665	475.701
705.793	473.918
705.921	467.495
706.049	474.619
706.177	466.969
706.305	477.216
706.433	466.856
706.562	463.835
706.690	458.536
706.818	459.206
706.946	463.825
707.074	455.155
707.202	452.814
707.330	450.464
707.458	454.866
707.587	450.845
707.715	449.649
707.843	444.196
707.971	446.155
708.099	444.010
708.227	444.361
708.355	447.113
708.483	445.072
708.612	439.711
708.740	439.278
708.868	434.237
708.996	440.887
709.124	441.340
709.252	437.196
709.380	435.134
709.508	426.052
709.637	429.969
709.765	428.309
709.893	432.567
710.021	425.320
710.149	428.206
710.277	427.753
710.405	421.196
710.533	422.814
710.662	421.196
710.790	417.433
710.918	418.216
711.046	417.299
711.174	415.320
711.302	412.268
711.430	413.186
711.558	415.753
711.687	415.536
711.815	406.320
711.943	413.474
712.071	407.340
712.199	412.474
712.327	404.897
712.455	403.381
712.583	406.433
712.712	412.711
712.840	404.557
712.968	400.660
713.096	403.948
713.224	400.773
713.352	402.010
713.480	394.959
713.608	398.196
713.737	393.897
713.865	401.361
713.993	396.546
714.121	394.495
714.249	396.165
714.377	394.464
714.505	394.608
714.633	392.825
714.762	389.660
714.890	387.536
715.018	389.464
715.146	385.753
715.274	382.598
715.402	381.124
715.530	386.000
715.658	382.557
715.787	381.753
715.915	379.031
716.043	383.866
716.171	385.062
716.299	381.402
716.427	375.598
716.555	376.340
716.683	375.753
716.812	380.155
716.940	373.031
717.068	374.722
717.196	370.320
717.324	370.237
717.452	365.515
717.580	367.072
717.708	363.309
717.837	369.474
717.965	364.948
718.093	369.495
718.221	362.938
718.349	366.227
718.477	365.825
718.605	358.608
718.733	358.567
718.862	354.258
718.990	363.113
719.118	361.464
719.246	354.464
719.374	354.031
719.502	356.918
719.630	352.361
719.758	350.041
719.887	357.701
720.015	350.680
720.143	344.062
720.271	348.804
720.399	348.588
720.527	348.258
720.655	342.155
720.783	344.691
720.912	345.495
721.040	342.763
721.168	343.680
721.296	339.763
721.424	338.711
721.552	338.876
721.680	337.206
721.808	332.680
721.937	335.320
722.065	330.948
722.193	331.670
722.321	330.443
722.449	329.495
722.577	330.969
722.705	329.897
722.833	330.753
722.962	323.299
723.090	323.794
723.218	326.041
723.346	316.309
723.474	323.237
723.602	322.454
723.730	319.835
723.858	317.639
723.987	315.845
724.115	316.825
724.243	315.722
724.371	318.361
724.499	316.237
724.627	317.567
724.755	314.010
724.883	318.309
725.012	308.979
725.140	306.031
725.268	312.474
725.396	308.216
725.524	306.670
725.652	306.515
725.780	302.835
725.908	304.289
726.037	300.351
726.165	297.639
726.293	300.897
726.421	302.361
726.549	304.299
726.677	300.753
726.805	295.680
726.933	302.588
727.062	295.278
727.190	292.763
727.318	296.021
727.446	294.392
727.574	294.557
727.702	292.505
727.830	291.804
727.958	294.649
728.087	293.938
728.215	292.825
728.343	287.289
728.471	287.330
728.599	286.742
728.727	285.515
728.855	287.381
728.983	283.701
729.112	279.258
729.240	285.186
729.368	283.907
729.496	281.794
729.624	278.144
729.752	284.619
729.880	280.216
730.008	278.165
730.137	277.577
730.265	279.588
730.393	274.526
730.521	273.010
730.649	279.371
730.777	274.237
730.905	272.856
731.033	271.814
731.162	274.423
731.290	272.299
731.418	265.959
731.546	265.371
731.674	268.021
731.802	265.237
731.930	268.660
732.058	267.649
732.187	269.619
732.315	268.619
732.443	268.289
732.571	266.113
732.699	267.093
732.827	264.979
732.955	263.649
733.083	259.412
733.212	260.258
733.340	261.392
733.468	255.742
733.596	264.546
733.724	255.216
733.852	255.897
733.980	254.577
734.108	261.577
734.237	257.247
734.365	255.649
734.493	257.103
734.621	252.021
734.749	254.227
734.877	255.722
735.005	253.237
735.133	252.969
735.262	249.062
735.390	252.784
735.518	247.464
735.646	249.845
735.774	248.443
735.902	247.082
736.030	248.052
736.158	244.701
736.287	249.629
736.415	250.361
736.543	251.072
736.671	242.340
736.799	247.351
736.927	244.175
737.055	243.299
737.183	239.701
737.312	238.753
737.440	239.474
737.568	241.969
737.696	245.093
737.824	240.495
737.952	239.670
738.080	238.784
738.208	239.639
738.337	235.814
738.465	235.825
738.593	232.876
738.721	236.412
738.849	236.052
738.977	233.557
739.105	234.639
739.233	236.691
739.362	228.897
739.490	230.113
739.618	232.124
739.746	227.278
739.874	229.402
740.002	228.381
740.130	223.887
740.258	228.938
740.387	232.866
740.515	225.845
740.643	226.010
740.771	226.866
740.899	223.639
741.027	221.082
741.155	225.557
741.283	222.268
741.412	222.784
741.540	223.928
741.668	219.701
741.796	219.742
741.924	221.010
742.052	220.155
742.180	220.474
742.308	221.144
742.437	218.938
742.565	217.732
742.693	216.557
742.821	218.856
742.949	217.948
743.077	221.784
743.205	217.485
743.333	213.732
743.462	214.732
743.590	211.784
743.718	214.320
743.846	213.876
743.974	211.845
744.102	210.897
744.230	210.959
744.358	208.134
744.487	208.918
744.615	208.309
744.743	214.969
744.871	206.433
744.999	206.423
745.127	209.062
745.255	204.124
745.383	204.495
745.512	205.278
745.640	203.186
745.768	205.082
745.896	201.433
746.024	202.299
746.152	204.660
746.280	200.402
746.408	198.639
746.537	200.742
746.665	205.031
746.793	200.649
746.921	202.928
747.049	201.608
747.177	198.546
747.305	196.206
747.433	196.392
747.562	198.206
747.690	193.320
747.818	198.196
747.946	196.557
748.074	197.227
748.202	193.856
748.330	194.794
748.458	196.237
748.587	196.701
748.715	191.412
748.843	192.093
748.971	191.464
749.099	193.588
749.227	190.835
749.355	189.299
749.483	189.742
749.612	189.062
749.740	186.351
749.868	188.103
749.996	188.237
750.124	188.216
750.252	188.454
750.380	185.928
750.508	185.577
750.637	189.155
750.765	187.175
750.893	184.557
751.021	184.464
751.149	186.186
751.277	184.247
751.405	185.351
751.533	185.619
751.662	188.722
751.790	184.897
751.918	184.629
752.046	182.804
752.174	182.680
752.302	182.216
752.430	181.021
752.558	178.928
752.687	180.577
752.815	180.897
752.943	177.268
753.071	176.938
753.199	179.124
753.327	178.660
753.455	176.660
753.583	176.495
753.712	177.608
753.840	176.526
753.968	180.082
754.096	172.381
754.224	176.856
754.352	171.464
754.480	176.247
754.608	173.680
754.737	169.505
754.865	173.423
754.993	171.928
755.121	171.866
755.249	173.124
755.377	169.443
755.505	170.825
755.633	170.722
755.762	168.278
755.890	172.907
756.018	170.464
756.146	167.340
756.274	169.577
756.402	169.505
756.530	167.680
756.658	168.216
756.787	165.907
756.915	165.041
757.043	162.701
757.171	166.103
757.299	158.969
757.427	162.907
757.555	162.515
757.683	163.216
757.812	163.381
757.940	166.247
758.068	164.577
758.196	165.144
758.324	164.175
758.452	161.608
758.580	160.608
758.708	163.124
758.837	160.515
758.965	158.691
759.093	157.959
759.221	162.186
759.349	157.340
759.477	159.876
759.605	159.660
759.733	160.340
759.862	160.825
759.990	155.722
760.118	158.433
760.246	155.330
760.374	155.773
760.502	155.113
760.630	155.041
760.758	155.629
760.887	152.990
761.015	153.845
761.143	155.505
761.271	154.299
761.399	153.907
761.527	153.969
761.655	151.052
761.783	153.196
761.912	153.464
762.040	153.289
762.168	151.186
762.296	149.742
762.424	147.639
762.552	151.515
762.680	149.856
762.808	150.144
762.937	148.969
763.065	148.371
763.193	152.268
763.321	148.227
763.449	149.072
763.577	146.155
763.705	146.546
763.833	150.619
763.962	147.742
764.090	147.330
764.218	146.412
764.346	144.979
764.474	146.196
764.602	147.268
764.730	143.536
764.858	144.845
764.987	144.918
765.115	143.588
765.243	142.990
765.371	144.206
765.499	142.454
765.627	142.299
765.755	142.464
765.883	141.392
766.012	145.361
766.140	140.691
766.268	142.732
766.396	142.680
766.524	139.258
766.652	139.227
766.780	138.062
766.908	141.825
767.037	140.278
767.165	140.021
767.293	139.608
767.421	139.722
767.549	138.464
767.677	139.371
767.805	139.258
767.933	137.567
768.062	138.485
768.190	137.247
768.318	139.144
768.446	139.711
768.574	136.165
768.702	138.526
768.830	136.299
768.958	134.701
769.087	137.866
769.215	139.773
769.343	137.680
769.471	137.134
769.599	136.165
769.727	136.660
769.855	138.629
769.983	134.526
770.112	136.876
770.240	134.082
770.368	134.887
770.496	137.464
770.624	135.206
770.752	138.082
770.880	134.082
771.008	135.206
771.137	136.021
771.265	132.062
771.393	134.763
771.521	133.227
771.649	135.454
771.777	132.423
771.905	133.753
772.033	137.186
772.162	131.526
772.290	131.454
772.418	133.021
772.546	131.031
772.674	133.412
772.802	132.216
772.930	132.082
773.058	129.804
773.187	130.969
773.315	132.392
773.443	130.134
773.571	130.784
773.699	131.010
773.827	129.629
773.955	129.454
774.083	131.619
774.212	131.021
774.340	129.392
774.468	128.412
774.596	129.959
774.724	129.206
774.852	129.330
774.980	130.258
775.108	128.536
775.237	129.691
775.365	127.876
775.493	130.144
775.621	127.794
775.749	125.649
775.877	129.124
776.005	129.608
776.133	130.381
776.262	130.423
776.390	127.660
776.518	127.536
776.646	128.206
776.774	126.278
776.902	126.072
777.030	125.598
777.158	124.990
777.287	126.299
777.415	125.814
777.543	124.959
777.671	125.423
777.799	126.629
777.927	130.186
778.055	124.742
778.183	126.722
778.312	124.866
778.440	123.680
778.568	126.608
778.696	124.536
778.824	125.753
778.952	126.670
779.080	124.010
779.208	124.505
779.337	123.433
779.465	123.856
779.593	124.021
779.721	123.124
779.849	123.608
779.977	124.103
780.105	123.680
780.233	121.423
780.362	121.577
780.490	120.835
780.618	123.155
780.746	122.814
780.874	120.536
781.002	120.629
781.130	121.938
781.258	121.299
781.387	122.856
781.515	120.928
781.643	119.619
781.771	120.784
781.899	119.557
782.027	120.526
782.155	121.165
782.283	117.814
782.412	119.897
782.540	119.526
782.668	120.268
782.796	123.134
782.924	121.247
783.052	118.969
783.180	118.433
783.308	119.052
783.437	119.567
783.565	119.680
783.693	119.134
783.821	120.093
783.949	117.268
784.077	118.701
784.205	119.485
784.333	118.412
784.462	119.433
784.590	120.753
784.718	117.103
784.846	117.505
784.974	117.505
785.102	118.237
785.230	119.082
785.358	118.206
785.487	115.320
785.615	115.392
785.743	115.753
785.871	116.485
785.999	118.072
786.127	115.876
786.255	114.134
786.383	114.485
786.512	115.639
786.640	113.763
786.768	116.247
786.896	114.804
787.024	114.876
787.152	114.309
787.280	113.959
787.408	116.887
787.537	113.876
787.665	117.392
787.793	115.433
787.921	116.794
788.049	115.742
788.177	113.918
788.305	115.557
788.433	112.536
788.562	112.021
788.690	112.227
788.818	112.804
788.946	114.557
789.074	112.804
789.202	113.577
789.330	114.010
789.458	114.742
789.587	114.206
789.715	111.866
789.843	112.052
789.971	113.742
790.099	112.711
790.227	111.072
790.355	112.247
790.483	111.753
790.612	112.505
790.740	113.165
790.868	113.309
790.996	112.763
791.124	113.289
791.252	111.258
791.380	113.299
791.508	110.278
791.637	113.433
791.765	111.309
791.893	109.763
792.021	110.495
792.149	110.835
792.277	110.959
792.405	112.196
792.533	110.680
792.662	110.351
792.790	112.443
792.918	112.856
793.046	110.247
793.174	111.196
793.302	112.505
793.430	110.794
793.558	110.608
793.687	109.021
793.815	108.433
793.943	109.753
794.071	109.165
794.199	109.814
794.327	109.598
794.455	109.598
794.583	108.732
794.712	109.814
794.840	108.887
794.968	108.258
795.096	109.536
795.224	108.763
795.352	108.237
795.480	109.845
795.608	109.763
795.737	109.258
795.865	108.309
795.993	108.175
796.121	109.732
796.249	108.876
796.377	107.495
796.505	108.701
796.633	109.773
796.762	109.165
796.890	110.278
797.018	109.567
797.146	108.206
797.274	106.299
797.402	107.567
797.530	107.753
797.658	108.196
797.787	109.732
797.915	107.897
798.043	107.773
798.171	109.351
798.299	107.340
798.427	106.866
798.555	105.443
798.683	107.134
798.812	106.876
798.940	107.330
799.068	107.959
799.196	106.948
799.324	105.876
799.452	106.454
799.580	107.876
799.708	106.412
799.837	105.443
799.965	105.474
800.093	105.794
800.221	107.887
800.349	107.763
800.477	106.619
800.605	105.845
800.733	106.515
800.862	107.103
800.990	107.052
801.118	106.402
801.246	105.969
801.374	106.969
801.502	106.887
801.630	106.381
801.758	105.979
801.887	104.691
802.015	105.278
802.143	106.227
802.271	105.144
802.399	106.577
802.527	104.433
802.655	104.711
802.783	105.309
802.912	106.072
803.040	106.670
803.168	104.258
803.296	104.866
803.424	105.206
803.552	105.423
803.680	104.103
803.808	103.103
803.937	104.588
804.065	105.113
804.193	104.124
804.321	104.392
804.449	103.835
804.577	104.000
804.705	103.041
804.833	102.598
804.962	104.031
805.090	103.320
805.218	104.134
805.346	104.619
805.474	104.216
805.602	105.639
805.730	103.814
805.858	104.165
805.987	101.979
806.115	103.856
806.243	103.619
806.371	103.567
806.499	103.309
806.627	103.753
806.755	103.742
806.883	105.031
807.012	102.536
807.140	104.299
807.268	103.340
807.396	104.320
807.524	104.660
807.652	102.629
807.780	104.052
807.908	103.660
808.037	102.711
808.165	102.907
808.293	102.381
808.421	103.010
808.549	103.144
808.677	102.402
808.805	102.134
808.933	103.165
809.062	103.897
809.190	103.155
809.318	102.216
809.446	102.557
809.574	102.474
809.702	102.309
809.830	102.660
809.958	101.629
810.087	102.546
810.215	102.701
810.343	103.082
810.471	103.216
810.599	103.928
810.727	103.598
810.855	102.165
810.983	103.804
811.112	104.113
811.240	101.381
811.368	102.608
811.496	103.134
811.624	102.134
811.752	102.536
811.880	101.928
812.008	101.742
812.137	102.649
812.265	101.711
812.393	100.649
812.521	100.536
812.649	102.546
812.777	102.309
812.905	100.876
813.033	101.753
813.162	101.876
813.290	102.845
813.418	101.711
813.546	101.515
813.674	102.433
813.802	100.454
813.930	100.629
814.058	101.113
814.187	102.402
814.315	101.804
814.443	101.794
814.571	99.794
814.699	102.433
814.827	102.371
814.955	102.082
815.083	101.588
815.212	100.082
815.340	100.649
815.468	100.567
815.596	100.454
815.724	101.423
815.852	100.557
815.980	100.990
816.108	100.701
816.237	100.619
816.365	100.423
816.493	100.412
816.621	100.289
816.749	100.732
816.877	100.670
817.005	101.082
817.133	101.515
817.262	100.680
817.390	101.619
817.518	100.845
817.646	101.629
817.774	100.722
817.902	101.392
818.030	101.474
818.158	100.959
818.287	100.227
818.415	100.237
818.543	99.062
818.671	100.505
818.799	101.701
818.927	100.454
819.055	100.289
819.183	100.928
819.312	99.948
819.440	100.371
819.568	102.227
819.696	101.216
819.824	100.969
819.952	100.134
820.080	99.010
820.208	98.052
820.337	101.433
820.465	100.216
820.593	99.732
820.721	100.546
820.849	100.144
820.977	100.041
821.105	100.660
821.233	100.216
821.362	99.887
821.490	100.299
821.618	100.412
821.746	99.464
821.874	98.856
822.002	99.186
822.130	100.289
822.258	99.825
822.387	98.990
822.515	100.660
822.643	98.825
822.771	98.206
822.899	99.784
823.027	99.897
823.155	99.093
823.283	98.134
823.412	101.351
823.540	99.423
823.668	99.959
823.796	100.113
823.924	100.186
824.052	100.072
824.180	98.619
824.308	100.124
824.437	99.845
824.565	98.320
824.693	99.072
824.821	99.392
824.949	99.577
825.077	98.948
825.205	98.175
825.333	99.299
825.462	99.010
825.590	98.959
825.718	97.969
825.846	99.175
825.974	99.856
826.102	99.505
826.230	97.701
826.358	98.608
826.487	99.072
826.615	98.031
826.743	99.144
826.871	99.948
826.999	101.237
827.127	98.784
827.255	98.763
827.383	98.557
827.512	97.938
827.640	100.660
827.768	98.990
827.896	98.268
828.024	99.608
828.152	99.144
828.280	99.959
828.408	99.918
828.537	99.711
828.665	98.505
828.793	98.639
828.921	99.722
829.049	100.433
829.177	97.268
829.305	100.423
829.433	98.866
829.562	97.247
829.690	99.041
829.818	98.619
829.946	98.402
830.074	97.825
830.202	99.485
830.330	98.485
830.458	99.052
830.587	100.113
830.715	98.938
830.843	98.320
830.971	98.598
831.099	97.320
831.227	98.186
831.355	98.175
831.483	99.505
831.612	99.443
831.740	99.742
831.868	99.175
831.996	98.629
832.124	99.474
832.252	97.320
832.380	98.485
832.508	98.691
832.637	99.062
832.765	98.598
832.893	99.546
833.021	99.258
833.149	98.948
833.277	99.412
833.405	100.196
833.533	98.485
833.662	99.381
833.790	98.144
833.918	99.278
834.046	99.010
834.174	99.588
834.302	99.320
834.430	97.845
834.558	98.392
834.687	99.216
834.815	99.103
834.943	98.268
835.071	97.845
835.199	98.021
835.327	99.351
835.455	98.093
835.583	99.619
835.712	99.536
835.840	98.608
835.968	98.165
836.096	99.381
836.224	98.433
836.352	99.010
836.480	98.969
836.608	98.196
836.737	98.990
836.865	98.608
836.993	97.454
837.121	99.340
837.249	98.113
837.377	98.742
837.505	97.247
837.633	97.629
837.762	98.320
837.890	97.165
838.018	96.557
838.146	98.155
838.274	97.897
838.402	98.639
838.530	98.237
838.658	97.247
838.787	98.845
838.915	97.948
839.043	98.299
839.171	97.763
839.299	99.247
839.427	97.320
839.555	99.928
839.683	99.423
839.812	97.412
839.940	99.258
840.068	99.340
840.196	98.907
840.324	97.732
840.452	98.680
840.580	97.691
840.708	97.959
840.837	97.660
840.965	98.588
841.093	97.773
841.221	99.021
841.349	100.619
841.477	98.134
841.605	97.701
841.733	96.691
841.862	99.072
841.990	98.969
842.118	98.186
842.246	97.443
842.374	98.165
842.502	99.134
842.630	98.649
842.758	99.000
842.887	98.093
843.015	99.454
843.143	97.928
843.271	99.196
843.399	97.515
843.527	97.454
843.655	98.330
843.783	97.629
843.912	97.784
844.040	98.598
844.168	99.619
844.296	99.186
844.424	99.268
844.552	99.031
844.680	97.845
844.808	98.588
844.937	98.515
845.065	98.526
845.193	99.289
845.321	98.402
845.449	98.433
845.577	98.113
845.705	98.928
845.833	98.649
845.962	98.320
846.090	97.784
846.218	96.794
846.346	97.361
846.474	96.969
846.602	97.031
846.730	98.124
846.858	98.660
846.987	97.804
847.115	98.825
847.243	98.072
847.371	99.134
847.499	97.165
847.627	98.031
847.755	98.412
847.883	97.794
848.012	98.742
848.140	97.546
848.268	98.216
848.396	97.701
848.524	99.526
848.652	98.969
848.780	98.392
848.908	99.794
849.037	98.732
849.165	98.567
849.293	96.845
849.421	98.598
849.549	98.732
849.677	97.309
849.805	99.103
849.933	99.258
850.062	97.825
850.190	97.289
850.318	97.124
850.446	98.979
850.574	97.639
850.702	97.969
850.830	97.649
850.958	97.732
851.087	99.330
851.215	97.588
851.343	97.887
851.471	97.856
851.599	97.825
851.727	97.495
851.855	99.041
851.983	97.660
852.112	98.227
852.240	97.371
852.368	97.897
852.496	98.165
852.624	98.227
852.752	97.577
852.880	97.371
853.008	97.804
853.137	99.103
853.265	98.835
853.393	97.887
853.521	97.289
853.649	96.990
853.777	98.031
853.905	98.969
854.033	97.619
854.162	97.979
854.290	98.598
854.418	96.990
854.546	96.454
854.674	97.577
854.802	97.103
854.930	97.031
855.058	97.371
855.187	97.732
855.315	97.876
855.443	98.887
855.571	98.289
855.699	98.856
855.827	96.804
855.955	97.959
856.083	97.784
856.212	99.495
856.340	99.113
856.468	97.361
856.596	98.381
856.724	97.567
856.852	98.216
856.980	97.732
857.108	98.361
857.237	97.866
857.365	96.598
857.493	98.784
857.621	98.577
857.749	98.361
857.877	97.557
858.005	98.361
858.133	96.340
858.262	97.031
858.390	98.701
858.518	96.320
858.646	98.010
858.774	99.175
858.902	98.268
859.030	97.557
859.158	97.536
859.287	97.124
859.415	97.093
859.543	97.371
859.671	97.835
859.799	98.825
859.927	98.526
860.055	98.732
860.183	98.134
860.312	97.454
860.440	96.247
860.568	98.351
860.696	98.206
860.824	98.866
860.952	97.608
861.080	97.804
861.208	98.804
861.337	97.031
861.465	97.309
861.593	98.557
861.721	99.093
861.849	98.227
861.977	96.309
862.105	98.608
862.233	96.732
862.362	98.876
862.490	98.443
862.618	97.835
862.746	97.155
862.874	98.804
863.002	97.887
863.130	97.845
863.258	98.598
863.387	97.052
863.515	97.990
863.643	97.392
863.771	98.196
863.899	98.423
864.027	99.227
864.155	97.948
864.283	96.546
864.412	99.175
864.540	98.464
864.668	97.701
864.796	98.608
864.924	97.948
865.052	97.093
865.180	98.433
865.308	98.608
865.437	97.505
865.565	97.299
865.693	98.072
865.821	98.485
865.949	98.845
866.077	99.876
866.205	97.175
866.333	96.814
866.462	97.227
866.590	98.629
866.718	97.691
866.846	99.206
866.974	98.588
867.102	98.052
867.230	98.072
867.358	97.155
867.487	98.237
867.615	96.773
867.743	99.175
867.871	98.938
867.999	97.825
868.127	98.196
868.255	98.990
868.383	100.206
868.512	99.289
868.640	97.979
868.768	99.515
868.896	97.474
869.024	98.515
869.152	98.835
869.280	99.588
869.408	99.052
869.537	98.722
869.665	97.732
869.793	97.742
869.921	97.856
870.049	99.196
870.177	98.742
870.305	98.763
870.433	99.227
870.562	98.072
870.690	98.856
870.818	98.619
870.946	99.010
871.074	97.990
871.202	97.093
871.330	98.330
871.458	99.010
871.587	98.907
871.715	97.103
871.843	99.577
871.971	98.526
872.099	97.144
872.227	98.237
872.355	97.711
872.483	97.340
872.612	99.536
872.740	98.268
872.868	98.742
872.996	97.443
873.124	98.392
873.252	99.825
873.380	98.093
873.508	99.196
873.637	98.495
873.765	98.423
873.893	97.753
874.021	99.990
874.149	99.237
874.277	98.423
874.405	97.753
874.533	99.186
874.662	98.814
874.790	97.897
874.918	97.856
875.046	97.701
875.174	96.804
875.302	98.845
875.430	98.474
875.558	96.763
875.687	98.021
875.815	99.588
875.943	98.299
876.071	99.392
876.199	100.113
876.327	97.948
876.455	97.948
876.583	99.134
876.712	99.753
876.840	98.155
876.968	98.423
877.096	99.041
877.224	98.340
877.352	98.732
877.480	99.711
877.608	98.454
877.737	97.588
877.865	97.515
877.993	97.938
878.121	98.701
878.249	98.969
878.377	98.825
878.505	97.711
878.633	100.722
878.762	99.979
878.890	97.856
879.018	97.701
879.146	99.361
879.274	98.371
879.402	99.320
879.530	97.959
879.658	98.031
879.787	97.381
879.915	97.732
880.043	98.289
880.171	98.608
880.299	98.247
880.427	98.464
880.555	98.619
880.683	100.072
880.812	98.670
880.940	97.639
881.068	98.619
881.196	98.887
881.324	99.000
881.452	98.546
881.580	99.619
881.708	98.010
881.837	98.742
881.965	96.804
882.093	99.186
882.221	98.206
882.349	98.031
882.477	98.330
882.605	99.784
882.733	100.186
882.862	100.124
882.990	97.897
883.118	98.155
883.246	98.722
883.374	98.588
883.502	97.670
883.630	100.392
883.758	98.887
883.887	98.464
884.015	99.062
884.143	98.907
884.271	98.979
884.399	98.969
884.527	99.299
884.655	99.711
884.783	99.794
884.912	97.299
885.040	97.866
885.168	98.412
885.296	97.773
885.424	98.433
885.552	98.742
885.680	97.351
885.808	98.010
885.937	100.474
886.065	98.052
886.193	99.289
886.321	98.990
886.449	100.021
886.577	98.784
886.705	97.856
886.833	99.021
886.962	99.969
887.090	99.546
887.218	98.299
887.346	98.588
887.474	99.485
887.602	98.928
887.730	97.289
887.858	98.835
887.987	98.784
888.115	98.598
888.243	98.742
888.371	100.546
888.499	100.124
888.627	97.423
888.755	98.124
888.883	100.093
889.012	98.031
889.140	98.814
889.268	98.412
889.396	99.649
889.524	98.268
889.652	97.784
889.780	99.897
889.908	98.515
890.037	98.897
890.165	97.639
890.293	98.320
890.421	98.784
890.549	99.474
890.677	97.175
890.805	99.392
890.933	98.320
891.062	98.928
891.190	98.979
891.318	99.649
891.446	98.753
891.574	99.598
891.702	97.928
891.830	97.711
891.958	98.361
892.087	99.165
892.215	99.763
892.343	100.247
892.471	99.041
892.599	99.196
892.727	100.680
892.855	99.990
892.983	99.196
893.112	98.309
893.240	99.206
893.368	98.856
893.496	99.928
893.624	99.845
893.752	100.670
893.880	98.784
894.008	99.784
894.137	98.722
894.265	98.866
894.393	99.990
894.521	99.258
894.649	98.763
894.777	99.031
894.905	99.247
895.033	101.134
895.162	100.278
895.290	99.082
895.418	99.258
895.546	99.423
895.674	97.515
895.802	97.918
895.930	99.216
896.058	98.742
896.187	99.907
896.315	101.299
896.443	99.588
896.571	100.546
896.699	99.433
896.827	98.526
896.955	98.588
897.083	99.340
897.212	100.794
897.340	98.515
897.468	98.763
897.596	98.041
897.724	98.495
897.852	99.423
897.980	99.464
898.108	98.897
898.237	99.670
898.365	99.371
898.493	99.330
898.621	99.742
898.749	98.536
898.877	99.423
899.005	99.557
899.133	99.814
899.262	99.619
899.390	98.433
899.518	99.268
899.646	98.856
899.774	99.794
899.902	99.381
900.030	99.485
900.158	99.093
900.287	99.124
900.415	99.938
900.543	99.515
900.671	101.010
900.799	99.619
900.927	97.753
901.055	97.340
901.183	99.928
901.312	99.979
901.440	100.588
901.568	100.711
901.696	98.897
901.824	98.794
901.952	99.763
902.080	98.505
902.208	100.505
902.337	100.278
902.465	99.062
902.593	100.021
902.721	99.660
902.849	99.856
902.977	99.196
903.105	99.423
903.233	100.010
903.362	100.773
903.490	98.505
903.618	99.536
903.746	98.546
903.874	100.814
904.002	101.206
904.130	100.268
904.258	99.082
904.387	99.371
904.515	99.732
904.643	101.928
904.771	101.299
904.899	100.103
905.027	98.948
905.155	99.010
905.283	99.773
905.412	99.608
905.540	98.938
905.668	99.196
905.796	99.412
905.924	100.608
906.052	100.515
906.180	100.072
906.308	99.258
906.437	98.773
906.565	99.918
906.693	99.649
906.821	98.876
906.949	100.103
907.077	99.381
907.205	100.680
907.333	99.691
907.462	101.268
907.590	101.062
907.718	99.454
907.846	99.959
907.974	101.196
908.102	100.454
908.230	97.979
908.358	98.680
908.487	99.608
908.615	100.443
908.743	101.340
908.871	101.866
908.999	100.165
909.127	99.093
909.255	99.175
909.383	98.629
909.512	100.918
909.640	100.763
909.768	101.309
909.896	101.165
910.024	100.021
910.152	100.804
910.280	100.330
910.408	100.670
910.537	101.021
910.665	101.299
910.793	100.381
910.921	100.124
911.049	98.454
911.177	99.227
911.305	100.299
911.433	99.876
911.562	101.237
911.690	100.309
911.818	99.660
911.946	100.113
912.074	101.041
912.202	100.351
912.330	99.649
912.458	101.485
912.587	99.887
912.715	100.701
912.843	100.701
912.971	101.938
913.099	101.979
913.227	100.907
913.355	101.155
913.483	100.814
913.612	101.876
913.740	100.392
913.868	100.990
