Ref_Start_wo_Pol_at_750.00nm_cut_at_1184.50Y_01.dat
03.07.2023
10:43:15
cut middle at Y: 1184.50
top cursor: 1231 down cursor: 1138 mean of: 93 lines , 2560 datapoints
wavelength(nm)	intensity[arb. units]
585.996	26817.892
586.124	26332.871
586.252	26328.301
586.380	26451.645
586.508	26467.161
586.637	26598.355
586.765	26607.151
586.893	26672.570
587.021	26681.280
587.149	26789.065
587.277	26818.097
587.405	26823.108
587.533	26938.559
587.662	26913.817
587.790	26915.333
587.918	26870.817
588.046	26844.409
588.174	26948.355
588.302	26979.774
588.430	26990.624
588.558	26919.398
588.687	26982.699
588.815	27000.828
588.943	26943.667
589.071	26990.043
589.199	27040.355
589.327	26980.570
589.455	26995.817
589.583	26960.054
589.712	26960.161
589.840	26866.925
589.968	26914.430
590.096	26957.086
590.224	26952.215
590.352	27051.419
590.480	26921.559
590.608	26934.925
590.737	26948.204
590.865	26977.559
590.993	26804.538
591.121	26915.118
591.249	26961.075
591.377	26973.505
591.505	26944.538
591.633	26870.441
591.762	26929.011
591.890	26898.677
592.018	27042.968
592.146	27022.323
592.274	26965.602
592.402	26960.032
592.530	27144.946
592.658	27077.548
592.787	27123.237
592.915	27124.269
593.043	27067.710
593.171	27141.215
593.299	27135.204
593.427	27081.269
593.555	27174.473
593.683	27216.462
593.812	27232.817
593.940	27247.441
594.068	27286.903
594.196	27258.215
594.324	27367.387
594.452	27498.753
594.580	27463.946
594.708	27503.011
594.837	27516.409
594.965	27615.548
595.093	27659.344
595.221	27742.527
595.349	27759.484
595.477	27781.645
595.605	27841.462
595.733	27869.849
595.862	27839.290
595.990	27828.914
596.118	27968.355
596.246	28058.269
596.374	27956.548
596.502	28091.602
596.630	28082.914
596.758	28067.774
596.887	28186.247
597.015	28175.355
597.143	28201.548
597.271	28185.785
597.399	28322.484
597.527	28251.258
597.655	28226.817
597.783	28311.914
597.912	28293.452
598.040	28379.452
598.168	28303.527
598.296	28267.925
598.424	28438.645
598.552	28261.699
598.680	28307.258
598.808	28335.710
598.937	28307.505
599.065	28315.043
599.193	28319.086
599.321	28350.978
599.449	28222.495
599.577	28196.849
599.705	28194.151
599.833	28127.387
599.962	28141.462
600.090	28119.699
600.218	28040.043
600.346	28120.441
600.474	28040.409
600.602	28009.151
600.730	27999.312
600.858	28077.323
600.987	28110.591
601.115	28043.849
601.243	28104.387
601.371	28154.968
601.499	28126.237
601.627	28165.151
601.755	28109.785
601.883	28137.763
602.012	27989.613
602.140	28145.097
602.268	28126.968
602.396	28275.366
602.524	28224.796
602.652	28341.398
602.780	28240.677
602.908	28407.505
603.037	28458.763
603.165	28498.677
603.293	28615.860
603.421	28569.989
603.549	28586.140
603.677	28733.032
603.805	28771.796
603.933	28811.978
604.062	28942.462
604.190	29049.376
604.318	29052.355
604.446	29097.591
604.574	29186.075
604.702	29207.839
604.830	29230.710
604.958	29316.355
605.087	29450.839
605.215	29616.828
605.343	29635.172
605.471	29673.914
605.599	29720.946
605.727	29840.258
605.855	29915.978
605.983	30016.645
606.112	30092.796
606.240	30066.656
606.368	30102.892
606.496	30118.570
606.624	30250.935
606.752	30217.882
606.880	30243.280
607.008	30271.882
607.137	30318.828
607.265	30393.903
607.393	30431.839
607.521	30509.978
607.649	30425.817
607.777	30449.613
607.905	30447.828
608.033	30451.258
608.162	30441.409
608.290	30413.398
608.418	30492.667
608.546	30453.817
608.674	30538.484
608.802	30478.624
608.930	30480.527
609.058	30423.538
609.187	30440.839
609.315	30433.441
609.443	30407.667
609.571	30519.882
609.699	30331.860
609.827	30412.086
609.955	30327.290
610.083	30270.763
610.212	30252.731
610.340	30183.237
610.468	30190.720
610.596	30137.301
610.724	30152.591
610.852	30196.699
610.980	30156.161
611.108	30143.989
611.237	30146.978
611.365	30109.925
611.493	30110.000
611.621	30069.312
611.749	30117.290
611.877	30175.849
612.005	30120.634
612.133	30093.140
612.262	30154.731
612.390	30152.774
612.518	30303.194
612.646	30234.129
612.774	30286.151
612.902	30268.172
613.030	30361.118
613.158	30296.699
613.287	30319.215
613.415	30297.495
613.543	30314.602
613.671	30343.333
613.799	30389.022
613.927	30430.957
614.055	30507.505
614.183	30465.989
614.312	30500.699
614.440	30664.097
614.568	30638.323
614.696	30703.290
614.824	30718.355
614.952	30796.333
615.080	30838.849
615.208	30910.129
615.337	31062.097
615.465	30982.355
615.593	31059.323
615.721	30999.301
615.849	31169.892
615.977	31196.656
616.105	31219.667
616.233	31324.430
616.362	31367.301
616.490	31413.452
616.618	31439.140
616.746	31531.656
616.874	31513.871
617.002	31622.097
617.130	31654.301
617.258	31584.602
617.387	31694.710
617.515	31673.785
617.643	31690.742
617.771	31720.065
617.899	31770.968
618.027	31768.237
618.155	31822.763
618.283	31826.839
618.412	31862.656
618.540	31933.183
618.668	31860.839
618.796	31909.796
618.924	31853.118
619.052	31868.290
619.180	31827.591
619.308	31786.602
619.437	31801.839
619.565	31849.086
619.693	31813.495
619.821	31841.763
619.949	31778.806
620.077	31812.742
620.205	31898.667
620.333	31825.430
620.462	31815.774
620.590	31823.280
620.718	31801.849
620.846	31770.677
620.974	31833.237
621.102	31862.097
621.230	31801.151
621.358	31887.538
621.487	31784.194
621.615	31727.645
621.743	31671.828
621.871	31725.108
621.999	31701.753
622.127	31702.118
622.255	31670.204
622.383	31633.753
622.512	31587.161
622.640	31590.065
622.768	31642.946
622.896	31611.968
623.024	31620.849
623.152	31551.419
623.280	31678.097
623.408	31558.624
623.537	31627.720
623.665	31583.753
623.793	31585.183
623.921	31537.333
624.049	31508.484
624.177	31493.312
624.305	31501.839
624.433	31462.538
624.562	31441.441
624.690	31507.849
624.818	31372.462
624.946	31346.204
625.074	31368.505
625.202	31381.452
625.330	31334.968
625.458	31433.710
625.587	31354.602
625.715	31373.688
625.843	31341.677
625.971	31330.215
626.099	31270.172
626.227	31264.753
626.355	31251.108
626.483	31340.763
626.612	31238.323
626.740	31346.140
626.868	31301.667
626.996	31349.817
627.124	31272.226
627.252	31315.677
627.380	31333.602
627.508	31173.763
627.637	31293.441
627.765	31330.237
627.893	31382.161
628.021	31388.753
628.149	31283.935
628.277	31351.989
628.405	31284.237
628.533	31308.183
628.662	31316.075
628.790	31412.290
628.918	31351.742
629.046	31481.849
629.174	31394.785
629.302	31420.043
629.430	31425.710
629.558	31393.312
629.687	31462.075
629.815	31460.677
629.943	31613.559
630.071	31571.280
630.199	31594.548
630.327	31575.387
630.455	31645.301
630.583	31646.054
630.712	31590.699
630.840	31655.505
630.968	31611.710
631.096	31635.645
631.224	31628.516
631.352	31782.903
631.480	31718.484
631.608	31914.806
631.737	31728.914
631.865	31801.667
631.993	31757.441
632.121	31955.656
632.249	31884.280
632.377	31846.860
632.505	31851.484
632.633	31979.280
632.762	31809.097
632.890	31863.226
633.018	31824.301
633.146	31772.538
633.274	31798.043
633.402	31802.398
633.530	31727.409
633.658	31776.409
633.787	31795.667
633.915	31753.054
634.043	31789.022
634.171	31742.215
634.299	31766.097
634.427	31696.129
634.555	31912.925
634.683	31676.462
634.812	31631.032
634.940	31601.312
635.068	31571.677
635.196	31519.817
635.324	31524.892
635.452	31480.140
635.580	31558.817
635.708	31456.796
635.837	31448.763
635.965	31332.785
636.093	31343.699
636.221	31200.075
636.349	31138.839
636.477	31114.968
636.605	31144.774
636.733	31040.344
636.862	31003.699
636.990	30950.215
637.118	30890.817
637.246	30817.570
637.374	30874.430
637.502	30663.527
637.630	30640.882
637.758	30601.516
637.887	30465.011
638.015	30611.054
638.143	30484.527
638.271	30340.043
638.399	30353.409
638.527	30277.774
638.655	30262.398
638.783	30162.452
638.912	30089.925
639.040	29994.957
639.168	29929.183
639.296	29886.570
639.424	29932.849
639.552	29784.538
639.680	29815.645
639.808	29679.591
639.937	29623.753
640.065	29684.677
640.193	29696.871
640.321	29743.366
640.449	29728.323
640.577	29543.355
640.705	29564.333
640.833	29487.215
640.962	29535.355
641.090	29434.656
641.218	29395.054
641.346	29460.269
641.474	29411.559
641.602	29351.355
641.730	29359.860
641.858	29307.108
641.987	29352.194
642.115	29428.946
642.243	29260.570
642.371	29394.602
642.499	29181.645
642.627	29284.194
642.755	29176.763
642.883	29200.301
643.012	29147.462
643.140	29226.054
643.268	29185.430
643.396	29088.344
643.524	29175.559
643.652	29172.355
643.780	29114.022
643.908	29074.903
644.037	29171.527
644.165	29128.570
644.293	29183.817
644.421	29035.624
644.549	29093.699
644.677	29012.602
644.805	28975.602
644.933	28986.710
645.062	29009.290
645.190	29120.978
645.318	28981.226
645.446	28902.140
645.574	28881.505
645.702	28890.548
645.830	28862.699
645.958	28798.591
646.087	28793.688
646.215	28769.710
646.343	28780.613
646.471	28878.516
646.599	28670.548
646.727	28659.817
646.855	28674.516
646.983	28628.785
647.112	28630.731
647.240	28549.183
647.368	28603.914
647.496	28534.849
647.624	28454.032
647.752	28484.581
647.880	28402.720
648.008	28409.495
648.137	28453.968
648.265	28327.656
648.393	28401.011
648.521	28291.849
648.649	28381.032
648.777	28202.108
648.905	28073.043
649.033	28116.785
649.162	28014.710
649.290	27848.602
649.418	27896.194
649.546	27991.022
649.674	27836.441
649.802	27748.645
649.930	27670.516
650.058	27610.591
650.187	27669.538
650.315	27586.677
650.443	27568.548
650.571	27381.344
650.699	27348.634
650.827	27322.720
650.955	27191.258
651.083	27245.129
651.212	27081.527
651.340	27106.118
651.468	26989.355
651.596	26979.022
651.724	26954.817
651.852	26853.344
651.980	26857.785
652.108	26725.839
652.237	26730.785
652.365	26698.247
652.493	26616.484
652.621	26508.419
652.749	26507.828
652.877	26497.591
653.005	26519.086
653.133	26384.204
653.262	26363.269
653.390	26280.183
653.518	26314.634
653.646	26094.409
653.774	26055.968
653.902	26133.204
654.030	26054.677
654.158	25960.946
654.287	25916.720
654.415	25838.860
654.543	25856.634
654.671	25795.140
654.799	25718.301
654.927	25645.548
655.055	25586.129
655.183	25560.204
655.312	25539.237
655.440	25431.011
655.568	25498.280
655.696	25369.484
655.824	25380.161
655.952	25324.097
656.080	25178.333
656.208	25154.398
656.337	25202.398
656.465	25282.806
656.593	25053.247
656.721	25081.839
656.849	25067.892
656.977	24837.237
657.105	24837.688
657.233	24890.333
657.362	24836.387
657.490	24787.634
657.618	24741.269
657.746	24669.914
657.874	24480.860
658.002	24467.452
658.130	24312.129
658.258	24250.333
658.387	24218.925
658.515	24214.785
658.643	24093.258
658.771	24151.333
658.899	24017.290
659.027	24011.817
659.155	23974.129
659.283	23906.871
659.412	23819.258
659.540	23810.925
659.668	23811.065
659.796	23857.796
659.924	23807.022
660.052	23833.032
660.180	23765.333
660.308	23769.441
660.437	23681.753
660.565	23609.301
660.693	23470.602
660.821	23568.376
660.949	23399.581
661.077	23420.613
661.205	23528.237
661.333	23338.989
661.462	23255.247
661.590	23313.387
661.718	23137.355
661.846	23150.914
661.974	23065.656
662.102	23050.086
662.230	23033.667
662.358	22852.247
662.487	22891.828
662.615	22852.409
662.743	22840.796
662.871	22773.398
662.999	22667.151
663.127	22628.161
663.255	22610.258
663.383	22715.656
663.512	22480.871
663.640	22450.312
663.768	22469.409
663.896	22406.935
664.024	22387.699
664.152	22335.989
664.280	22369.086
664.408	22233.118
664.537	22204.667
664.665	22193.333
664.793	22163.710
664.921	22045.871
665.049	22116.570
665.177	22039.441
665.305	22021.656
665.433	21969.677
665.562	22055.151
665.690	21921.226
665.818	22015.591
665.946	21840.140
666.074	21769.527
666.202	21731.720
666.330	21656.731
666.458	21987.774
666.587	21630.720
666.715	21577.634
666.843	21505.194
666.971	21500.108
667.099	21472.473
667.227	21488.817
667.355	21468.774
667.483	21319.183
667.612	21396.462
667.740	21283.215
667.868	21238.247
667.996	21237.839
668.124	21256.462
668.252	21317.817
668.380	21099.183
668.508	21159.333
668.637	21017.161
668.765	20987.075
668.893	20920.570
669.021	20856.280
669.149	20918.871
669.277	20761.000
669.405	20902.237
669.533	20866.151
669.662	20768.065
669.790	20670.860
669.918	20718.516
670.046	20772.538
670.174	20525.731
670.302	20525.774
670.430	20401.151
670.558	20457.946
670.687	20567.989
670.815	20313.817
670.943	20346.000
671.071	20203.882
671.199	20134.796
671.327	20128.624
671.455	20178.333
671.583	20085.624
671.712	20044.978
671.840	19997.849
671.968	20086.247
672.096	20006.097
672.224	19814.516
672.352	19742.613
672.480	19643.097
672.608	19663.462
672.737	19594.280
672.865	19524.656
672.993	19460.129
673.121	19382.032
673.249	19385.054
673.377	19280.677
673.505	19226.742
673.633	19293.591
673.762	19147.495
673.890	19178.183
674.018	19151.548
674.146	19073.419
674.274	19020.828
674.402	19011.753
674.530	18908.355
674.658	18803.280
674.787	18769.591
674.915	18830.860
675.043	18689.333
675.171	18646.194
675.299	18502.828
675.427	18498.301
675.555	18440.086
675.683	18431.978
675.812	18374.495
675.940	18338.183
676.068	18225.581
676.196	18242.086
676.324	18140.215
676.452	18073.806
676.580	18006.323
676.708	17956.720
676.837	17898.817
676.965	17953.774
677.093	17962.011
677.221	17789.183
677.349	17682.366
677.477	17734.129
677.605	17623.075
677.733	17557.957
677.862	17450.989
677.990	17503.247
678.118	17442.452
678.246	17355.409
678.374	17369.043
678.502	17266.183
678.630	17159.075
678.758	17125.946
678.887	17210.720
679.015	17023.774
679.143	16976.129
679.271	16946.387
679.399	16907.570
679.527	16857.645
679.655	16903.688
679.783	16759.559
679.912	16675.785
680.040	16790.828
680.168	16595.753
680.296	16590.839
680.424	16547.398
680.552	16483.774
680.680	16413.774
680.808	16397.118
680.937	16313.065
681.065	16355.763
681.193	16258.548
681.321	16141.194
681.449	16217.452
681.577	16114.634
681.705	16101.720
681.833	16074.763
681.962	15997.075
682.090	15957.398
682.218	15920.215
682.346	15879.000
682.474	15794.763
682.602	15780.978
682.730	15777.946
682.858	15706.753
682.987	15686.172
683.115	15670.699
683.243	15643.473
683.371	15605.957
683.499	15532.720
683.627	15522.516
683.755	15472.430
683.883	15421.323
684.012	15396.344
684.140	15327.667
684.268	15349.280
684.396	15374.839
684.524	15319.989
684.652	15307.086
684.780	15259.194
684.908	15224.925
685.037	15212.516
685.165	15136.677
685.293	15164.226
685.421	15154.194
685.549	15083.301
685.677	15022.258
685.805	15003.903
685.933	14934.097
686.062	14919.882
686.190	14910.957
686.318	14812.000
686.446	14792.183
686.574	14741.946
686.702	14756.323
686.830	14672.860
686.958	14687.043
687.087	14636.978
687.215	14598.194
687.343	14553.301
687.471	14716.022
687.599	14442.699
687.727	14424.645
687.855	14366.140
687.983	14343.312
688.112	14322.043
688.240	14333.000
688.368	14306.280
688.496	14247.366
688.624	14163.462
688.752	14290.860
688.880	14155.161
689.008	14141.785
689.137	14087.505
689.265	13972.667
689.393	14000.484
689.521	13948.624
689.649	13986.226
689.777	13888.323
689.905	13911.000
690.033	13776.699
690.162	13741.570
690.290	13802.903
690.418	13691.495
690.546	13704.226
690.674	13693.753
690.802	13678.645
690.930	13566.032
691.058	13559.903
691.187	13476.419
691.315	13439.194
691.443	13390.613
691.571	13403.957
691.699	13325.323
691.827	13272.731
691.955	13268.376
692.083	13187.806
692.212	13194.860
692.340	13191.516
692.468	13168.290
692.596	13095.989
692.724	13009.828
692.852	13056.914
692.980	13012.785
693.108	13014.419
693.237	12886.925
693.365	12859.312
693.493	12834.215
693.621	12798.591
693.749	12738.946
693.877	12752.688
694.005	12628.688
694.133	12554.989
694.262	12585.441
694.390	12528.247
694.518	12497.989
694.646	12457.129
694.774	12370.968
694.902	12324.871
695.030	12303.301
695.158	12258.774
695.287	12205.946
695.415	12187.763
695.543	12182.634
695.671	12062.882
695.799	12191.903
695.927	12040.215
696.055	12047.473
696.183	11915.043
696.312	12106.323
696.440	11948.817
696.568	11931.462
696.696	11731.785
696.824	11693.710
696.952	11684.194
697.080	11666.806
697.208	11609.000
697.337	11558.108
697.465	11523.097
697.593	11447.763
697.721	11540.376
697.849	11400.624
697.977	11388.871
698.105	11413.720
698.233	11330.871
698.362	11213.237
698.490	11349.108
698.618	11147.129
698.746	11140.581
698.874	11166.624
699.002	11097.000
699.130	11053.312
699.258	10983.344
699.387	10910.075
699.515	10912.527
699.643	10906.871
699.771	10926.161
699.899	10783.871
700.027	10739.892
700.155	10754.527
700.283	10603.742
700.412	10641.194
700.540	10613.806
700.668	10643.624
700.796	10499.860
700.924	10533.452
701.052	10503.333
701.180	10456.731
701.308	10366.667
701.437	10347.591
701.565	10317.108
701.693	10315.430
701.821	10459.763
701.949	10187.215
702.077	10210.161
702.205	10218.645
702.333	10097.452
702.462	10051.720
702.590	10085.430
702.718	9963.118
702.846	10108.301
702.974	9905.484
703.102	9886.645
703.230	9838.785
703.358	9786.957
703.487	9764.355
703.615	9748.258
703.743	9688.796
703.871	9675.355
703.999	9636.763
704.127	9585.656
704.255	9532.280
704.383	9550.129
704.512	9577.645
704.640	9475.065
704.768	9541.978
704.896	9363.548
705.024	9307.978
705.152	9327.602
705.280	9321.828
705.408	9193.989
705.537	9175.656
705.665	9166.129
705.793	9106.301
705.921	9062.462
706.049	8996.086
706.177	9029.828
706.305	8935.000
706.433	8964.505
706.562	8912.473
706.690	8893.409
706.818	8855.204
706.946	8772.398
707.074	8730.570
707.202	8688.796
707.330	8641.172
707.458	8624.710
707.587	8556.667
707.715	8589.151
707.843	8571.806
707.971	8571.473
708.099	8432.946
708.227	8393.527
708.355	8384.710
708.483	8340.011
708.612	8344.452
708.740	8241.247
708.868	8261.849
708.996	8267.065
709.124	8234.806
709.252	8182.355
709.380	8214.473
709.508	8114.022
709.637	8120.634
709.765	8056.226
709.893	8073.925
710.021	7974.667
710.149	8041.215
710.277	7905.032
710.405	7907.011
710.533	7891.398
710.662	7836.204
710.790	7924.161
710.918	7774.527
711.046	7788.710
711.174	7740.280
711.302	7731.075
711.430	7681.527
711.558	7713.032
711.687	7660.387
711.815	7571.290
711.943	7533.624
712.071	7539.484
712.199	7548.892
712.327	7575.882
712.455	7437.065
712.583	7635.774
712.712	7452.925
712.840	7487.935
712.968	7394.645
713.096	7373.344
713.224	7312.925
713.352	7299.710
713.480	7218.355
713.608	7195.989
713.737	7159.387
713.865	7240.366
713.993	7173.581
714.121	7146.441
714.249	7089.032
714.377	7066.516
714.505	7013.699
714.633	7033.215
714.762	6973.075
714.890	6948.054
715.018	6929.774
715.146	6976.473
715.274	6884.086
715.402	6868.688
715.530	6848.495
715.658	6858.194
715.787	6814.043
715.915	6879.688
716.043	6760.839
716.171	6882.699
716.299	6680.538
716.427	6778.333
716.555	6647.968
716.683	6639.237
716.812	6610.871
716.940	6576.151
717.068	6537.817
717.196	6713.656
717.324	6553.258
717.452	6523.151
717.580	6542.344
717.708	6428.817
717.837	6430.161
717.965	6461.946
718.093	6368.301
718.221	6408.129
718.349	6422.323
718.477	6297.817
718.605	6377.742
718.733	6307.452
718.862	6311.258
718.990	6212.333
719.118	6273.903
719.246	6187.258
719.374	6147.699
719.502	6189.903
719.630	6254.591
719.758	6060.194
719.887	6040.989
720.015	6095.849
720.143	6120.527
720.271	5986.140
720.399	6009.495
720.527	5938.849
720.655	6030.516
720.783	5913.484
720.912	5872.548
721.040	5891.387
721.168	5870.247
721.296	5779.194
721.424	5772.247
721.552	5756.667
721.680	5818.054
721.808	5754.204
721.937	5723.548
722.065	5734.387
722.193	5660.548
722.321	5663.720
722.449	5636.161
722.577	5574.559
722.705	5543.817
722.833	5571.355
722.962	5562.742
723.090	5499.333
723.218	5499.688
723.346	5509.763
723.474	5428.237
723.602	5399.591
723.730	5375.559
723.858	5326.462
723.987	5334.269
724.115	5311.957
724.243	5322.419
724.371	5277.731
724.499	5246.957
724.627	5234.409
724.755	5215.333
724.883	5296.731
725.012	5355.409
725.140	5182.742
725.268	5094.011
725.396	5168.441
725.524	5229.011
725.652	5068.806
725.780	5189.022
725.908	5013.624
726.037	5010.624
726.165	4996.892
726.293	4930.323
726.421	4951.473
726.549	4983.796
726.677	4929.505
726.805	4839.129
726.933	4871.613
727.062	4849.656
727.190	4796.204
727.318	4781.731
727.446	4758.817
727.574	4706.591
727.702	4719.108
727.830	4779.591
727.958	4699.763
728.087	4758.108
728.215	4777.495
728.343	4634.871
728.471	4665.333
728.599	4749.581
728.727	4556.376
728.855	4583.731
728.983	4541.957
729.112	4526.645
729.240	4519.194
729.368	4477.108
729.496	4485.656
729.624	4482.817
729.752	4420.957
729.880	4419.871
730.008	4396.817
730.137	4401.903
730.265	4355.419
730.393	4486.108
730.521	4446.710
730.649	4226.215
730.777	4181.591
730.905	4195.484
731.033	4148.656
731.162	4271.419
731.290	4236.796
731.418	4147.978
731.546	4128.645
731.674	4110.871
731.802	4042.989
731.930	4146.989
732.058	4196.140
732.187	4064.269
732.315	4059.989
732.443	4150.194
732.571	4077.204
732.699	4055.097
732.827	4072.817
732.955	4010.796
733.083	3985.043
733.212	3977.957
733.340	3898.097
733.468	3894.237
733.596	3910.677
733.724	3884.538
733.852	3917.645
733.980	3864.118
734.108	3997.086
734.237	3863.022
734.365	3826.344
734.493	3810.946
734.621	3785.667
734.749	3773.677
734.877	3783.419
735.005	3770.742
735.133	3725.376
735.262	3821.892
735.390	3689.860
735.518	3685.634
735.646	3750.903
735.774	3738.548
735.902	3731.817
736.030	3620.183
736.158	3605.269
736.287	3646.957
736.415	3591.226
736.543	3589.151
736.671	3548.301
736.799	3567.849
736.927	3522.882
737.055	3648.452
737.183	3510.989
737.312	3508.602
737.440	3506.688
737.568	3588.452
737.696	3541.968
737.824	3441.032
737.952	3715.656
738.080	3417.172
738.208	3470.204
738.337	3418.258
738.465	3414.452
738.593	3373.441
738.721	3368.978
738.849	3441.226
738.977	3345.753
739.105	3360.462
739.233	3336.710
739.362	3301.720
739.490	3285.645
739.618	3333.118
739.746	3322.624
739.874	3251.699
740.002	3270.796
740.130	3247.097
740.258	3170.140
740.387	3252.323
740.515	3192.731
740.643	3197.667
740.771	3256.452
740.899	3143.430
741.027	3125.742
741.155	3098.419
741.283	3079.387
741.412	3221.957
741.540	3134.785
741.668	3110.989
741.796	3178.613
741.924	3050.978
742.052	3196.978
742.180	3061.194
742.308	3006.871
742.437	3043.258
742.565	3012.129
742.693	3118.806
742.821	2980.882
742.949	2950.161
743.077	2991.376
743.205	2903.946
743.333	2954.366
743.462	2969.269
743.590	2889.720
743.718	2940.742
743.846	2896.903
743.974	2922.247
744.102	2850.419
744.230	2895.473
744.358	2845.323
744.487	2846.602
744.615	2807.301
744.743	2828.817
744.871	2811.699
744.999	2843.215
745.127	2771.323
745.255	2759.419
745.383	2806.796
745.512	2771.860
745.640	2733.667
745.768	2742.043
745.896	2779.129
746.024	2758.290
746.152	2709.677
746.280	2763.430
746.408	2717.699
746.537	2759.570
746.665	2713.172
746.793	2700.806
746.921	2671.731
747.049	2672.656
747.177	2652.204
747.305	2729.570
747.433	2645.849
747.562	2632.194
747.690	2651.473
747.818	2652.505
747.946	2644.323
748.074	2602.161
748.202	2606.473
748.330	2593.591
748.458	2565.398
748.587	2569.484
748.715	2586.258
748.843	2545.505
748.971	2538.032
749.099	2545.806
749.227	2546.538
749.355	2550.086
749.483	2503.935
749.612	2535.871
749.740	2502.968
749.868	2498.796
749.996	2501.731
750.124	2497.409
750.252	2453.731
750.380	2457.699
750.508	2440.978
750.637	2417.957
750.765	2455.269
750.893	2424.323
751.021	2400.462
751.149	2401.323
751.277	2383.032
751.405	2367.849
751.533	2389.624
751.662	2344.763
751.790	2360.344
751.918	2335.032
752.046	2329.667
752.174	2307.452
752.302	2294.699
752.430	2275.344
752.558	2286.473
752.687	2268.462
752.815	2272.828
752.943	2257.075
753.071	2242.495
753.199	2253.473
753.327	2243.495
753.455	2224.226
753.583	2207.366
753.712	2196.484
753.840	2224.398
753.968	2184.129
754.096	2180.355
754.224	2173.333
754.352	2160.538
754.480	2184.989
754.608	2170.742
754.737	2143.344
754.865	2135.914
754.993	2150.301
755.121	2127.581
755.249	2110.731
755.377	2056.473
755.505	2085.591
755.633	2086.742
755.762	2056.677
755.890	2073.613
756.018	2051.269
756.146	2028.613
756.274	2025.903
756.402	2034.742
756.530	2013.505
756.658	2011.667
756.787	1987.430
756.915	1974.720
757.043	1968.290
757.171	1990.333
757.299	1986.548
757.427	1936.505
757.555	1938.065
757.683	1948.129
757.812	1942.462
757.940	1899.914
758.068	1917.731
758.196	1906.774
758.324	1905.505
758.452	1871.656
758.580	1884.452
758.708	1882.925
758.837	1886.151
758.965	1891.656
759.093	1869.656
759.221	1815.097
759.349	1818.591
759.477	1818.108
759.605	1807.581
759.733	1824.226
759.862	1789.613
759.990	1794.355
760.118	1787.000
760.246	1800.183
760.374	1782.849
760.502	1770.720
760.630	1764.860
760.758	1744.366
760.887	1753.720
761.015	1729.699
761.143	1729.516
761.271	1724.011
761.399	1712.161
761.527	1715.172
761.655	1705.839
761.783	1678.645
761.912	1681.839
762.040	1693.624
762.168	1654.957
762.296	1671.871
762.424	1656.032
762.552	1668.968
762.680	1638.140
762.808	1644.935
762.937	1632.323
763.065	1618.742
763.193	1604.452
763.321	1607.667
763.449	1581.527
763.577	1579.366
763.705	1603.247
763.833	1594.065
763.962	1555.849
764.090	1555.925
764.218	1551.129
764.346	1546.108
764.474	1556.602
764.602	1527.785
764.730	1542.043
764.858	1526.602
764.987	1533.108
765.115	1498.409
765.243	1496.946
765.371	1510.419
765.499	1495.516
765.627	1488.086
765.755	1480.032
765.883	1475.215
766.012	1466.333
766.140	1451.946
766.268	1446.591
766.396	1455.075
766.524	1448.301
766.652	1431.892
766.780	1433.753
766.908	1424.183
767.037	1426.516
767.165	1406.591
767.293	1419.161
767.421	1407.398
767.549	1383.860
767.677	1408.409
767.805	1388.957
767.933	1373.032
768.062	1372.387
768.190	1364.151
768.318	1366.688
768.446	1341.258
768.574	1328.806
768.702	1339.688
768.830	1336.108
768.958	1324.387
769.087	1330.108
769.215	1320.527
769.343	1313.817
769.471	1313.000
769.599	1307.688
769.727	1302.194
769.855	1298.634
769.983	1322.409
770.112	1281.172
770.240	1279.172
770.368	1264.280
770.496	1252.581
770.624	1266.409
770.752	1246.484
770.880	1261.602
771.008	1244.204
771.137	1241.645
771.265	1235.194
771.393	1215.333
771.521	1219.398
771.649	1231.602
771.777	1264.065
771.905	1275.785
772.033	1248.398
772.162	1198.484
772.290	1192.763
772.418	1199.237
772.546	1192.538
772.674	1184.742
772.802	1170.667
772.930	1176.882
773.058	1167.570
773.187	1174.441
773.315	1152.204
773.443	1153.151
773.571	1157.935
773.699	1151.903
773.827	1156.946
773.955	1174.505
774.083	1143.613
774.212	1126.591
774.340	1127.344
774.468	1128.624
774.596	1120.763
774.724	1119.656
774.852	1115.591
774.980	1098.011
775.108	1107.828
775.237	1082.935
775.365	1089.065
775.493	1082.710
775.621	1089.613
775.749	1094.817
775.877	1096.151
776.005	1083.892
776.133	1077.774
776.262	1070.903
776.390	1060.032
776.518	1057.957
776.646	1055.011
776.774	1051.258
776.902	1046.183
777.030	1033.333
777.158	1033.839
777.287	1051.441
777.415	1026.602
777.543	1026.892
777.671	1032.720
777.799	1034.237
777.927	1021.452
778.055	1017.946
778.183	1006.323
778.312	1008.516
778.440	1012.172
778.568	1022.925
778.696	992.247
778.824	1010.441
778.952	993.774
779.080	987.419
779.208	992.774
779.337	983.688
779.465	986.720
779.593	979.849
779.721	976.935
779.849	973.075
779.977	972.667
780.105	964.527
780.233	964.441
780.362	959.344
780.490	952.161
780.618	953.624
780.746	951.548
780.874	945.946
781.002	946.677
781.130	933.645
781.258	926.892
781.387	930.914
781.515	934.118
781.643	926.075
781.771	926.516
781.899	935.914
782.027	913.032
782.155	902.194
782.283	901.989
782.412	913.774
782.540	911.409
782.668	894.118
782.796	898.882
782.924	904.710
783.052	899.667
783.180	886.785
783.308	888.075
783.437	871.022
783.565	886.817
783.693	878.054
783.821	873.484
783.949	876.280
784.077	870.860
784.205	865.419
784.333	864.376
784.462	869.860
784.590	857.731
784.718	843.602
784.846	845.280
784.974	856.677
785.102	843.108
785.230	845.742
785.358	832.054
785.487	836.140
785.615	825.183
785.743	821.989
785.871	835.871
785.999	833.000
786.127	833.301
786.255	819.677
786.383	815.548
786.512	816.946
786.640	810.376
786.768	797.925
786.896	796.226
787.024	791.753
787.152	793.538
787.280	812.312
787.408	793.075
787.537	796.011
787.665	802.065
787.793	786.925
787.921	781.290
788.049	767.194
788.177	783.086
788.305	774.731
788.433	782.548
788.562	763.516
788.690	764.688
788.818	771.892
788.946	764.968
789.074	752.473
789.202	746.376
789.330	742.516
789.458	755.548
789.587	749.323
789.715	756.323
789.843	741.151
789.971	742.753
790.099	737.022
790.227	733.914
790.355	731.677
790.483	733.032
790.612	733.548
790.740	738.441
790.868	726.968
790.996	732.419
791.124	734.978
791.252	722.312
791.380	717.419
791.508	711.452
791.637	718.946
791.765	695.935
791.893	708.355
792.021	704.581
792.149	701.720
792.277	706.290
792.405	689.462
792.533	696.688
792.662	688.172
792.790	690.484
792.918	701.258
793.046	679.957
793.174	678.495
793.302	680.925
793.430	678.280
793.558	685.086
793.687	681.581
793.815	672.570
793.943	678.376
794.071	665.022
794.199	654.441
794.327	664.699
794.455	677.097
794.583	664.925
794.712	654.946
794.840	649.796
794.968	652.194
795.096	660.591
795.224	633.527
795.352	689.527
795.480	627.871
795.608	641.796
795.737	634.226
795.865	628.022
795.993	628.860
796.121	628.043
796.249	631.785
796.377	622.118
796.505	631.441
796.633	621.452
796.762	616.097
796.890	612.258
797.018	620.871
797.146	619.398
797.274	621.871
797.402	606.806
797.530	600.280
797.658	605.409
797.787	616.957
797.915	608.097
798.043	586.634
798.171	610.075
798.299	590.957
798.427	592.925
798.555	597.839
798.683	591.699
798.812	612.559
798.940	638.301
799.068	609.032
799.196	585.237
799.324	585.204
799.452	566.161
799.580	572.935
799.708	576.581
799.837	569.075
799.965	559.989
800.093	561.882
800.221	563.925
800.349	568.591
800.477	559.151
800.605	555.172
800.733	546.301
800.862	557.495
800.990	547.290
801.118	546.527
801.246	555.828
801.374	548.849
801.502	547.247
801.630	544.602
801.758	539.097
801.887	531.634
802.015	536.688
802.143	528.538
802.271	533.860
802.399	521.538
802.527	520.634
802.655	522.763
802.783	524.914
802.912	520.398
803.040	514.817
803.168	511.774
803.296	520.151
803.424	503.914
803.552	508.667
803.680	515.011
803.808	515.247
803.937	505.043
804.065	503.538
804.193	508.935
804.321	511.871
804.449	521.194
804.577	500.484
804.705	510.559
804.833	489.935
804.962	490.613
805.090	499.398
805.218	494.710
805.346	484.129
805.474	493.548
805.602	492.086
805.730	503.667
805.858	473.194
805.987	474.849
806.115	474.957
806.243	495.634
806.371	479.591
806.499	475.839
806.627	466.312
806.755	474.849
806.883	472.688
807.012	470.903
807.140	469.946
807.268	465.140
807.396	472.344
807.524	463.151
807.652	467.613
807.780	464.097
807.908	461.086
808.037	473.946
808.165	465.280
808.293	455.280
808.421	459.398
808.549	452.688
808.677	447.796
808.805	466.892
808.933	446.817
809.062	452.667
809.190	460.258
809.318	453.097
809.446	438.495
809.574	446.796
809.702	437.806
809.830	429.882
809.958	445.312
810.087	441.398
810.215	438.151
810.343	435.527
810.471	441.581
810.599	425.237
810.727	436.817
810.855	429.290
810.983	429.484
811.112	430.774
811.240	424.022
811.368	420.194
811.496	431.914
811.624	423.065
811.752	427.247
811.880	439.624
812.008	423.419
812.137	430.172
812.265	417.505
812.393	420.871
812.521	410.903
812.649	412.183
812.777	410.452
812.905	413.172
813.033	420.065
813.162	409.634
813.290	401.892
813.418	409.935
813.546	403.989
813.674	400.323
813.802	400.172
813.930	401.645
814.058	396.452
814.187	404.774
814.315	397.215
814.443	397.656
814.571	398.796
814.699	394.935
814.827	396.398
814.955	397.333
815.083	389.828
815.212	393.269
815.340	380.667
815.468	394.989
815.596	385.677
815.724	389.699
815.852	392.398
815.980	386.860
816.108	382.699
816.237	381.473
816.365	399.688
816.493	383.559
816.621	387.828
816.749	375.043
816.877	454.645
817.005	394.344
817.133	386.495
817.262	375.247
817.390	373.430
817.518	385.172
817.646	365.710
817.774	360.925
817.902	366.215
818.030	368.140
818.158	367.108
818.287	363.280
818.415	362.634
818.543	358.269
818.671	362.602
818.799	357.194
818.927	357.280
819.055	373.129
819.183	359.366
819.312	383.194
819.440	357.129
819.568	351.258
819.696	354.634
819.824	358.376
819.952	354.237
820.080	354.108
820.208	356.097
820.337	357.581
820.465	353.376
820.593	354.624
820.721	349.978
820.849	343.473
820.977	353.323
821.105	354.559
821.233	334.366
821.362	348.699
821.490	338.140
821.618	351.301
821.746	345.753
821.874	338.645
822.002	331.140
822.130	341.548
822.258	339.516
822.387	338.742
822.515	341.355
822.643	334.914
822.771	337.570
822.899	343.000
823.027	331.462
823.155	335.591
823.283	346.914
823.412	351.161
823.540	329.312
823.668	325.323
823.796	336.656
823.924	329.613
824.052	327.677
824.180	333.710
824.308	329.097
824.437	337.785
824.565	330.344
824.693	320.183
824.821	319.720
824.949	328.602
825.077	324.290
825.205	317.258
825.333	323.957
825.462	322.559
825.590	318.860
825.718	313.011
825.846	319.484
825.974	317.194
826.102	320.753
826.230	315.892
826.358	323.462
826.487	317.409
826.615	312.075
826.743	309.194
826.871	323.140
826.999	305.591
827.127	311.989
827.255	317.398
827.383	308.634
827.512	305.054
827.640	314.634
827.768	334.280
827.896	305.688
828.024	311.409
828.152	301.634
828.280	309.731
828.408	296.677
828.537	309.226
828.665	303.151
828.793	302.505
828.921	303.602
829.049	304.032
829.177	299.108
829.305	303.215
829.433	300.419
829.562	303.710
829.690	300.720
829.818	304.688
829.946	298.624
830.074	300.129
830.202	294.656
830.330	297.527
830.458	292.882
830.587	305.871
830.715	291.344
830.843	288.398
830.971	296.935
831.099	299.000
831.227	315.312
831.355	288.570
831.483	292.204
831.612	293.183
831.740	286.011
831.868	285.742
831.996	302.720
832.124	289.194
832.252	297.183
832.380	287.785
832.508	286.903
832.637	287.032
832.765	292.742
832.893	288.011
833.021	287.387
833.149	280.473
833.277	287.806
833.405	292.892
833.533	281.301
833.662	292.355
833.790	277.129
833.918	286.215
834.046	285.935
834.174	278.925
834.302	285.613
834.430	280.215
834.558	280.882
834.687	292.065
834.815	282.849
834.943	276.280
835.071	280.699
835.199	282.258
835.327	273.935
835.455	286.645
835.583	277.753
835.712	269.548
835.840	279.355
835.968	276.452
836.096	286.892
836.224	272.667
836.352	281.473
836.480	268.183
836.608	267.591
836.737	277.516
836.865	268.591
836.993	278.731
837.121	282.011
837.249	273.624
837.377	267.892
837.505	261.935
837.633	273.430
837.762	278.473
837.890	269.473
838.018	269.892
838.146	266.430
838.274	262.968
838.402	264.559
838.530	283.215
838.658	272.387
838.787	271.161
838.915	257.398
839.043	274.688
839.171	262.441
839.299	265.742
839.427	281.634
839.555	270.000
839.683	259.108
839.812	267.355
839.940	257.613
840.068	263.957
840.196	289.054
840.324	276.591
840.452	264.097
840.580	261.011
840.708	256.495
840.837	257.785
840.965	259.097
841.093	253.935
841.221	257.892
841.349	254.570
841.477	256.183
841.605	250.516
841.733	255.914
841.862	265.323
841.990	259.366
842.118	251.075
842.246	255.441
842.374	247.344
842.502	264.613
842.630	252.366
842.758	253.043
842.887	262.323
843.015	273.903
843.143	251.097
843.271	249.968
843.399	254.000
843.527	253.183
843.655	250.731
843.783	251.860
843.912	252.075
844.040	246.108
844.168	248.914
844.296	260.559
844.424	257.613
844.552	258.817
844.680	248.226
844.808	244.108
844.937	246.409
845.065	248.022
845.193	261.667
845.321	251.194
845.449	251.882
845.577	247.505
845.705	243.710
845.833	241.731
845.962	258.570
846.090	250.043
846.218	257.839
846.346	253.151
846.474	252.452
846.602	239.409
846.730	248.570
846.858	241.108
846.987	248.054
847.115	254.742
847.243	251.237
847.371	240.194
847.499	237.409
847.627	245.054
847.755	239.710
847.883	254.022
848.012	250.376
848.140	238.452
848.268	240.935
848.396	239.710
848.524	247.312
848.652	237.591
848.780	241.806
848.908	242.280
849.037	244.183
849.165	236.290
849.293	246.452
849.421	240.925
849.549	241.914
849.677	232.763
849.805	250.022
849.933	238.505
850.062	244.237
850.190	237.065
850.318	234.731
850.446	241.355
850.574	239.860
850.702	232.925
850.830	235.129
850.958	237.290
851.087	242.108
851.215	230.581
851.343	236.011
851.471	240.763
851.599	240.366
851.727	240.495
851.855	232.548
851.983	242.043
852.112	233.247
852.240	245.559
852.368	249.473
852.496	232.935
852.624	236.290
852.752	243.226
852.880	237.667
853.008	229.387
853.137	232.118
853.265	235.957
853.393	233.548
853.521	229.935
853.649	239.699
853.777	228.140
853.905	230.280
854.033	230.817
854.162	228.075
854.290	233.624
854.418	246.226
854.546	266.871
854.674	249.118
854.802	237.462
854.930	229.860
855.058	236.538
855.187	227.204
855.315	240.828
855.443	233.957
855.571	230.194
855.699	239.237
855.827	225.333
855.955	231.613
856.083	231.538
856.212	230.215
856.340	231.161
856.468	230.527
856.596	231.022
856.724	233.914
856.852	243.860
856.980	224.129
857.108	221.387
857.237	219.323
857.365	230.054
857.493	235.000
857.621	230.548
857.749	224.860
857.877	222.968
858.005	222.344
858.133	226.323
858.262	223.441
858.390	223.065
858.518	221.204
858.646	229.892
858.774	220.505
858.902	222.043
859.030	227.484
859.158	223.946
859.287	225.247
859.415	224.667
859.543	224.280
859.671	223.108
859.799	232.613
859.927	226.301
860.055	220.957
860.183	218.548
860.312	218.957
860.440	223.140
860.568	215.871
860.696	231.075
860.824	234.312
860.952	220.710
861.080	219.785
861.208	226.688
861.337	223.796
861.465	228.882
861.593	223.978
861.721	228.269
861.849	226.312
861.977	216.914
862.105	221.484
862.233	216.194
862.362	217.355
862.490	216.398
862.618	222.355
862.746	220.194
862.874	220.624
863.002	218.194
863.130	222.860
863.258	220.258
863.387	222.505
863.515	222.075
863.643	229.258
863.771	222.849
863.899	219.570
864.027	227.570
864.155	247.032
864.283	215.215
864.412	214.688
864.540	226.043
864.668	217.011
864.796	219.978
864.924	219.108
865.052	217.204
865.180	234.011
865.308	221.581
865.437	224.312
865.565	214.204
865.693	211.333
865.821	213.720
865.949	234.957
866.077	217.344
866.205	216.634
866.333	224.839
866.462	208.925
866.590	222.344
866.718	219.677
866.846	215.215
866.974	216.000
867.102	212.570
867.230	217.957
867.358	215.935
867.487	222.602
867.615	228.548
867.743	213.882
867.871	227.086
867.999	212.742
868.127	225.559
868.255	229.301
868.383	208.108
868.512	219.925
868.640	209.860
868.768	212.290
868.896	222.903
869.024	209.398
869.152	208.323
869.280	210.215
869.408	216.699
869.537	209.118
869.665	206.495
869.793	213.688
869.921	214.452
870.049	202.591
870.177	211.538
870.305	207.645
870.433	206.161
870.562	210.484
870.690	210.172
870.818	217.570
870.946	208.151
871.074	204.344
871.202	213.817
871.330	206.043
871.458	213.505
871.587	211.613
871.715	215.860
871.843	213.441
871.971	219.312
872.099	206.000
872.227	209.860
872.355	204.677
872.483	204.742
872.612	214.398
872.740	210.774
872.868	207.516
872.996	213.667
873.124	219.925
873.252	208.516
873.380	202.430
873.508	216.548
873.637	216.247
873.765	205.860
873.893	208.032
874.021	210.978
874.149	210.054
874.277	208.742
874.405	216.151
874.533	217.774
874.662	205.376
874.790	218.688
874.918	209.280
875.046	206.022
875.174	207.075
875.302	207.817
875.430	203.613
875.558	210.462
875.687	209.914
875.815	206.204
875.943	209.237
876.071	208.247
876.199	209.796
876.327	205.548
876.455	208.656
876.583	203.817
876.712	211.290
876.840	206.183
876.968	204.043
877.096	206.301
877.224	206.548
877.352	197.817
877.480	210.161
877.608	220.054
877.737	206.699
877.865	203.871
877.993	213.355
878.121	211.763
878.249	211.710
878.377	206.011
878.505	213.806
878.633	207.935
878.762	202.215
878.890	207.634
879.018	212.903
879.146	201.753
879.274	239.796
879.402	213.441
879.530	203.828
879.658	214.086
879.787	209.559
879.915	202.118
880.043	202.183
880.171	241.753
880.299	208.258
880.427	205.075
880.555	197.720
880.683	209.742
880.812	204.957
880.940	203.946
881.068	211.387
881.196	210.624
881.324	205.882
881.452	201.978
881.580	208.903
881.708	201.000
881.837	207.118
881.965	203.043
882.093	195.312
882.221	202.398
882.349	200.656
882.477	204.204
882.605	203.204
882.733	213.871
882.862	199.086
882.990	212.613
883.118	213.011
883.246	212.796
883.374	204.355
883.502	210.785
883.630	212.226
883.758	204.301
883.887	212.151
884.015	209.097
884.143	205.763
884.271	206.763
884.399	198.065
884.527	204.527
884.655	206.086
884.783	213.505
884.912	231.075
885.040	211.645
885.168	203.323
885.296	213.312
885.424	204.978
885.552	199.699
885.680	218.430
885.808	213.366
885.937	209.903
886.065	207.419
886.193	205.849
886.321	202.505
886.449	201.860
886.577	202.634
886.705	219.183
886.833	192.656
886.962	204.484
887.090	207.645
887.218	201.344
887.346	199.860
887.474	200.903
887.602	202.161
887.730	197.258
887.858	199.183
887.987	201.312
888.115	204.043
888.243	198.645
888.371	213.419
888.499	203.376
888.627	200.194
888.755	207.215
888.883	204.000
889.012	203.634
889.140	204.323
889.268	208.699
889.396	193.108
889.524	207.140
889.652	193.645
889.780	200.387
889.908	202.473
890.037	207.194
890.165	197.301
890.293	206.333
890.421	199.688
890.549	193.828
890.677	196.075
890.805	202.849
890.933	202.086
891.062	200.710
891.190	203.022
891.318	195.409
891.446	203.247
891.574	197.237
891.702	196.247
891.830	191.194
891.958	210.355
892.087	208.215
892.215	203.118
892.343	202.387
892.471	205.237
892.599	196.602
892.727	205.946
892.855	221.763
892.983	193.914
893.112	199.505
893.240	208.763
893.368	200.430
893.496	205.742
893.624	199.269
893.752	218.366
893.880	196.699
894.008	205.925
894.137	197.903
894.265	201.602
894.393	200.204
894.521	203.806
894.649	200.516
894.777	192.527
894.905	241.215
895.033	193.430
895.162	193.677
895.290	208.871
895.418	200.043
895.546	231.161
895.674	201.860
895.802	240.054
895.930	198.634
896.058	194.151
896.187	201.054
896.315	193.473
896.443	207.204
896.571	226.290
896.699	195.032
896.827	200.161
896.955	195.473
897.083	202.183
897.212	198.849
897.340	195.366
897.468	198.731
897.596	200.204
897.724	196.161
897.852	190.312
897.980	189.817
898.108	202.075
898.237	196.301
898.365	193.409
898.493	204.753
898.621	194.914
898.749	197.172
898.877	191.269
899.005	197.054
899.133	201.828
899.262	210.075
899.390	199.269
899.518	197.731
899.646	194.903
899.774	192.742
899.902	193.699
900.030	205.559
900.158	192.011
900.287	198.914
900.415	190.043
900.543	195.484
900.671	202.656
900.799	196.860
900.927	193.376
901.055	204.398
901.183	205.387
901.312	208.366
901.440	189.978
901.568	188.935
901.696	191.258
901.824	191.925
901.952	189.473
902.080	202.667
902.208	195.226
902.337	202.151
902.465	194.871
902.593	210.677
902.721	220.882
902.849	210.989
902.977	197.011
903.105	194.312
903.233	188.978
903.362	186.054
903.490	197.849
903.618	193.118
903.746	185.602
903.874	196.280
904.002	191.667
904.130	207.108
904.258	181.527
904.387	203.409
904.515	184.925
904.643	199.473
904.771	193.258
904.899	188.473
905.027	199.570
905.155	192.430
905.283	191.269
905.412	199.215
905.540	189.065
905.668	192.194
905.796	190.871
905.924	190.624
906.052	190.538
906.180	198.892
906.308	190.892
906.437	188.645
906.565	195.366
906.693	203.495
906.821	185.581
906.949	192.215
907.077	185.989
907.205	197.000
907.333	186.710
907.462	185.419
907.590	189.129
907.718	190.065
907.846	196.097
907.974	187.656
908.102	190.763
908.230	195.054
908.358	188.742
908.487	184.677
908.615	201.828
908.743	202.796
908.871	194.441
908.999	184.129
909.127	183.882
909.255	196.903
909.383	184.591
909.512	185.495
909.640	204.968
909.768	187.806
909.896	195.710
910.024	195.194
910.152	202.269
910.280	197.892
910.408	187.699
910.537	189.151
910.665	193.925
910.793	194.505
910.921	192.796
911.049	199.656
911.177	203.796
911.305	188.505
911.433	188.075
911.562	196.118
911.690	196.903
911.818	193.871
911.946	192.118
912.074	197.366
912.202	187.441
912.330	206.452
912.458	184.645
912.587	191.323
912.715	196.118
912.843	202.409
912.971	197.312
913.099	213.151
913.227	197.925
913.355	200.903
913.483	209.344
913.612	203.516
913.740	218.817
913.868	197.968
