70_100_wo_pol_at_750.00nm_cut_at_1184.50Y_01.dat
03.07.2023
10:29:46
cut middle at Y: 1184.50
top cursor: 1231 down cursor: 1138 mean of: 93 lines , 2560 datapoints
wavelength(nm)	intensity[arb. units]
585.996	21445.763
586.124	21102.183
586.252	21116.204
586.380	21175.312
586.508	21249.624
586.637	21407.538
586.765	21383.108
586.893	21395.828
587.021	21473.312
587.149	21516.559
587.277	21560.559
587.405	21602.290
587.533	21701.204
587.662	21720.763
587.790	21668.269
587.918	21736.000
588.046	21670.215
588.174	21780.796
588.302	21745.720
588.430	21783.333
588.558	21832.903
588.687	21866.796
588.815	21895.785
588.943	21906.720
589.071	21957.634
589.199	21976.667
589.327	21956.376
589.455	21966.710
589.583	21976.043
589.712	22016.151
589.840	21982.688
589.968	22010.634
590.096	22121.301
590.224	22138.011
590.352	22255.301
590.480	22160.065
590.608	22137.204
590.737	22184.946
590.865	22228.978
590.993	22131.344
591.121	22181.559
591.249	22224.161
591.377	22234.839
591.505	22302.699
591.633	22304.118
591.762	22359.237
591.890	22363.269
592.018	22450.484
592.146	22454.290
592.274	22429.495
592.402	22448.688
592.530	22664.269
592.658	22590.710
592.787	22627.882
592.915	22708.183
593.043	22583.742
593.171	22724.086
593.299	22705.301
593.427	22743.860
593.555	22795.591
593.683	22881.032
593.812	22884.914
593.940	22936.903
594.068	23013.677
594.196	23028.376
594.324	23170.656
594.452	23329.312
594.580	23210.688
594.708	23414.634
594.837	23407.720
594.965	23550.871
595.093	23559.333
595.221	23699.011
595.349	23752.742
595.477	23715.946
595.605	23818.882
595.733	23834.097
595.862	23890.581
595.990	23875.355
596.118	23971.925
596.246	24107.591
596.374	24078.667
596.502	24173.280
596.630	24210.419
596.758	24249.355
596.887	24307.247
597.015	24384.108
597.143	24378.344
597.271	24390.925
597.399	24524.602
597.527	24463.935
597.655	24549.720
597.783	24581.129
597.912	24595.860
598.040	24654.624
598.168	24677.935
598.296	24582.215
598.424	24836.624
598.552	24680.946
598.680	24684.000
598.808	24815.312
598.937	24762.849
599.065	24773.882
599.193	24921.301
599.321	24908.581
599.449	24851.258
599.577	24841.806
599.705	24860.602
599.833	24849.774
599.962	24869.871
600.090	24915.505
600.218	24841.538
600.346	24908.108
600.474	24889.495
600.602	24936.763
600.730	25020.903
600.858	25036.591
600.987	25130.871
601.115	25077.022
601.243	25155.226
601.371	25270.011
601.499	25241.022
601.627	25362.129
601.755	25358.344
601.883	25422.849
602.012	25420.860
602.140	25443.151
602.268	25515.280
602.396	25679.806
602.524	25745.387
602.652	25879.935
602.780	25837.032
602.908	25894.871
603.037	26044.151
603.165	26058.075
603.293	26188.140
603.421	26246.570
603.549	26314.849
603.677	26389.398
603.805	26560.022
603.933	26622.075
604.062	26778.312
604.190	26852.989
604.318	26943.505
604.446	26969.247
604.574	27138.871
604.702	27205.763
604.830	27204.602
604.958	27306.774
605.087	27481.151
605.215	27624.075
605.343	27729.785
605.471	27758.516
605.599	27858.075
605.727	28076.398
605.855	28117.430
605.983	28181.570
606.112	28309.806
606.240	28344.387
606.368	28438.398
606.496	28457.882
606.624	28624.011
606.752	28611.849
606.880	28746.839
607.008	28814.473
607.137	28831.946
607.265	28994.022
607.393	29013.914
607.521	29107.559
607.649	29087.903
607.777	29124.796
607.905	29190.022
608.033	29198.817
608.162	29235.570
608.290	29227.903
608.418	29399.774
608.546	29387.720
608.674	29434.720
608.802	29398.892
608.930	29429.215
609.058	29508.398
609.187	29469.763
609.315	29509.323
609.443	29534.269
609.571	29642.409
609.699	29529.806
609.827	29649.871
609.955	29664.355
610.083	29617.280
610.212	29653.914
610.340	29640.043
610.468	29708.581
610.596	29733.398
610.724	29729.118
610.852	29864.441
610.980	29857.204
611.108	29867.419
611.237	29915.495
611.365	29937.495
611.493	29903.505
611.621	30008.387
611.749	30049.140
611.877	30185.355
612.005	30203.452
612.133	30288.312
612.262	30346.215
612.390	30377.710
612.518	30458.806
612.646	30520.968
612.774	30620.108
612.902	30683.914
613.030	30808.183
613.158	30752.280
613.287	30890.968
613.415	30907.333
613.543	31037.118
613.671	30997.258
613.799	31145.849
613.927	31181.925
614.055	31404.323
614.183	31417.957
614.312	31478.237
614.440	31672.355
614.568	31689.312
614.696	31811.312
614.824	31924.978
614.952	31994.581
615.080	32051.022
615.208	32239.968
615.337	32311.849
615.465	32297.194
615.593	32505.237
615.721	32509.269
615.849	32674.892
615.977	32722.323
616.105	32820.011
616.233	32898.366
616.362	33059.796
616.490	33175.022
616.618	33294.011
616.746	33392.161
616.874	33409.957
617.002	33519.548
617.130	33620.505
617.258	33638.387
617.387	33758.290
617.515	33816.097
617.643	33908.355
617.771	33994.000
617.899	34111.710
618.027	34192.376
618.155	34235.806
618.283	34320.194
618.412	34426.194
618.540	34511.247
618.668	34514.452
618.796	34650.290
618.924	34646.495
619.052	34781.000
619.180	34772.892
619.308	34744.946
619.437	34911.172
619.565	34963.419
619.693	34942.151
619.821	35087.667
619.949	35087.828
620.077	35241.957
620.205	35280.978
620.333	35296.699
620.462	35343.075
620.590	35404.925
620.718	35515.441
620.846	35554.935
620.974	35585.333
621.102	35693.065
621.230	35648.419
621.358	35858.204
621.487	35810.720
621.615	35854.538
621.743	35839.849
621.871	35957.860
621.999	35933.925
622.127	35987.495
622.255	36043.871
622.383	36029.462
622.512	36113.118
622.640	36133.032
622.768	36288.903
622.896	36346.849
623.024	36362.000
623.152	36366.731
623.280	36530.785
623.408	36527.430
623.537	36600.591
623.665	36614.505
623.793	36708.505
623.921	36712.763
624.049	36735.720
624.177	36752.710
624.305	36781.527
624.433	36825.301
624.562	36975.323
624.690	37094.828
624.818	36969.086
624.946	36989.914
625.074	37101.613
625.202	37082.312
625.330	37119.000
625.458	37242.978
625.587	37240.753
625.715	37343.247
625.843	37338.763
625.971	37529.559
626.099	37480.516
626.227	37630.806
626.355	37548.957
626.483	37700.430
626.612	37747.925
626.740	37894.172
626.868	37878.892
626.996	37991.538
627.124	38072.882
627.252	38027.860
627.380	38156.978
627.508	38159.656
627.637	38231.742
627.765	38392.215
627.893	38427.226
628.021	38511.667
628.149	38567.935
628.277	38647.280
628.405	38664.108
628.533	38725.452
628.662	38806.817
628.790	38956.849
628.918	38944.699
629.046	39153.237
629.174	39128.559
629.302	39203.688
629.430	39278.538
629.558	39332.108
629.687	39407.656
629.815	39478.860
629.943	39673.376
630.071	39720.011
630.199	39820.032
630.327	39964.441
630.455	39996.677
630.583	40127.667
630.712	40161.118
630.840	40270.581
630.968	40297.140
631.096	40374.312
631.224	40465.527
631.352	40654.849
631.480	40716.968
631.608	40900.645
631.737	40829.839
631.865	41029.892
631.993	41012.817
632.121	41319.849
632.249	41234.731
632.377	41269.312
632.505	41356.763
632.633	41574.086
632.762	41421.925
632.890	41597.978
633.018	41584.667
633.146	41698.452
633.274	41696.860
633.402	41758.344
633.530	41862.871
633.658	41869.742
633.787	41943.172
633.915	41945.022
634.043	42020.172
634.171	42109.516
634.299	42135.194
634.427	42143.237
634.555	42395.978
634.683	42266.624
634.812	42191.925
634.940	42281.710
635.068	42260.441
635.196	42259.667
635.324	42282.387
635.452	42279.989
635.580	42409.882
635.708	42343.376
635.837	42304.086
635.965	42348.645
636.093	42337.065
636.221	42281.484
636.349	42298.086
636.477	42351.957
636.605	42345.785
636.733	42301.204
636.862	42292.581
636.990	42300.473
637.118	42230.882
637.246	42212.022
637.374	42337.086
637.502	42213.376
637.630	42173.387
637.758	42138.258
637.887	42155.688
638.015	42265.441
638.143	42135.774
638.271	42012.172
638.399	42118.978
638.527	42084.602
638.655	42133.333
638.783	42065.710
638.912	42092.903
639.040	42067.957
639.168	42017.430
639.296	41961.624
639.424	42128.914
639.552	42017.763
639.680	42109.903
639.808	42043.946
639.937	42017.634
640.065	42080.108
640.193	42055.935
640.321	42276.333
640.449	42270.387
640.577	42159.366
640.705	42235.849
640.833	42157.624
640.962	42333.828
641.090	42257.688
641.218	42290.957
641.346	42390.667
641.474	42425.000
641.602	42464.602
641.730	42442.237
641.858	42470.699
641.987	42560.151
642.115	42806.774
642.243	42672.366
642.371	42932.419
642.499	42676.968
642.627	42871.656
642.755	42805.968
642.883	42850.462
643.012	42925.828
643.140	43039.903
643.268	43037.151
643.396	43025.484
643.524	43136.344
643.652	43282.441
643.780	43240.398
643.908	43287.226
644.037	43394.484
644.165	43380.903
644.293	43618.151
644.421	43476.796
644.549	43589.742
644.677	43605.720
644.805	43577.882
644.933	43596.022
645.062	43767.043
645.190	43922.935
645.318	43825.172
645.446	43797.194
645.574	43925.903
645.702	43853.430
645.830	43939.323
645.958	43903.441
646.087	43937.204
646.215	43918.710
646.343	44004.204
646.471	44104.129
646.599	43942.968
646.727	44062.957
646.855	43956.000
646.983	43966.161
647.112	44060.032
647.240	43981.957
647.368	44027.419
647.496	43998.763
647.624	43981.204
647.752	43998.505
647.880	44034.065
648.008	43924.290
648.137	44040.344
648.265	44069.935
648.393	44076.806
648.521	43918.118
648.649	44067.624
648.777	43944.645
648.905	43863.441
649.033	43867.774
649.162	43769.688
649.290	43663.968
649.418	43703.849
649.546	43804.409
649.674	43644.409
649.802	43653.548
649.930	43561.849
650.058	43489.892
650.187	43560.667
650.315	43472.796
650.443	43407.129
650.571	43297.161
650.699	43328.882
650.827	43276.656
650.955	43253.817
651.083	43201.602
651.212	43147.290
651.340	43096.796
651.468	43033.817
651.596	42996.118
651.724	42966.043
651.852	42980.054
651.980	42914.452
652.108	42738.817
652.237	42816.140
652.365	42714.527
652.493	42557.280
652.621	42565.118
652.749	42607.333
652.877	42441.849
653.005	42453.903
653.133	42445.849
653.262	42324.882
653.390	42297.333
653.518	42299.634
653.646	42135.301
653.774	42057.817
653.902	42142.140
654.030	42060.204
654.158	41937.505
654.287	41909.441
654.415	41806.935
654.543	41891.280
654.671	41781.484
654.799	41718.118
654.927	41621.258
655.055	41649.570
655.183	41603.172
655.312	41551.903
655.440	41470.312
655.568	41444.806
655.696	41374.527
655.824	41361.452
655.952	41354.419
656.080	41184.559
656.208	41234.258
656.337	41231.935
656.465	41332.602
656.593	41066.828
656.721	41052.796
656.849	41095.097
656.977	40837.290
657.105	40901.624
657.233	40827.430
657.362	40800.140
657.490	40773.871
657.618	40713.312
657.746	40691.548
657.874	40496.839
658.002	40425.774
658.130	40379.839
658.258	40356.935
658.387	40315.731
658.515	40245.290
658.643	40198.215
658.771	40201.333
658.899	40112.774
659.027	40085.054
659.155	40035.828
659.283	39945.022
659.412	39886.204
659.540	39963.376
659.668	39849.065
659.796	39889.247
659.924	39819.957
660.052	39848.860
660.180	39734.903
660.308	39801.000
660.437	39723.108
660.565	39602.677
660.693	39503.839
660.821	39565.075
660.949	39329.699
661.077	39359.097
661.205	39465.129
661.333	39334.882
661.462	39238.387
661.590	39235.161
661.718	39108.699
661.846	39087.796
661.974	39033.129
662.102	39052.925
662.230	38926.645
662.358	38850.753
662.487	38832.753
662.615	38828.065
662.743	38646.301
662.871	38797.505
662.999	38675.022
663.127	38631.237
663.255	38505.763
663.383	38620.108
663.512	38440.430
663.640	38426.774
663.768	38444.688
663.896	38311.183
664.024	38323.215
664.152	38254.656
664.280	38254.430
664.408	38194.742
664.537	38064.484
664.665	38081.570
664.793	38105.312
664.921	38018.989
665.049	38062.054
665.177	37932.022
665.305	37969.925
665.433	37843.151
665.562	38037.129
665.690	37870.140
665.818	38014.505
665.946	37658.441
666.074	37629.968
666.202	37631.484
666.330	37597.742
666.458	37806.054
666.587	37534.742
666.715	37526.925
666.843	37423.914
666.971	37376.957
667.099	37395.817
667.227	37405.129
667.355	37405.527
667.483	37240.269
667.612	37246.699
667.740	37207.538
667.868	37115.054
667.996	37065.430
668.124	37121.828
668.252	37138.108
668.380	36949.613
668.508	36946.129
668.637	36782.387
668.765	36796.774
668.893	36665.763
669.021	36674.290
669.149	36649.538
669.277	36620.968
669.405	36624.000
669.533	36593.774
669.662	36437.247
669.790	36401.602
669.918	36323.495
670.046	36455.613
670.174	36166.710
670.302	36082.785
670.430	35970.925
670.558	36034.452
670.687	36110.054
670.815	35865.140
670.943	35813.742
671.071	35694.731
671.199	35572.946
671.327	35518.505
671.455	35512.968
671.583	35436.968
671.712	35391.538
671.840	35378.172
671.968	35429.634
672.096	35256.301
672.224	35014.774
672.352	34971.183
672.480	34860.086
672.608	34835.763
672.737	34728.376
672.865	34594.333
672.993	34551.258
673.121	34473.656
673.249	34375.333
673.377	34304.484
673.505	34200.172
673.633	34210.645
673.762	34029.785
673.890	33995.667
674.018	33920.634
674.146	33866.000
674.274	33738.806
674.402	33736.151
674.530	33554.505
674.658	33425.000
674.787	33298.280
674.915	33350.011
675.043	33251.323
675.171	33062.871
675.299	32974.548
675.427	32882.849
675.555	32763.946
675.683	32734.355
675.812	32653.731
675.940	32584.086
676.068	32395.968
676.196	32423.376
676.324	32257.151
676.452	32176.602
676.580	32064.505
676.708	31916.978
676.837	31856.699
676.965	31884.323
677.093	31869.581
677.221	31596.108
677.349	31520.667
677.477	31417.774
677.605	31331.538
677.733	31208.710
677.862	31147.194
677.990	31072.161
678.118	31035.409
678.246	30867.828
678.374	30852.366
678.502	30705.935
678.630	30590.570
678.758	30480.645
678.887	30584.817
679.015	30286.366
679.143	30220.516
679.271	30169.011
679.399	30131.430
679.527	30056.774
679.655	30011.903
679.783	29866.151
679.912	29763.280
680.040	29869.172
680.168	29604.237
680.296	29568.398
680.424	29557.806
680.552	29413.387
680.680	29326.161
680.808	29263.323
680.937	29170.634
681.065	29187.828
681.193	29029.247
681.321	28937.548
681.449	29004.548
681.577	28789.656
681.705	28844.817
681.833	28747.667
681.962	28611.398
682.090	28529.140
682.218	28521.419
682.346	28459.570
682.474	28422.419
682.602	28386.688
682.730	28343.699
682.858	28144.151
682.987	28163.011
683.115	28121.290
683.243	28061.720
683.371	28032.613
683.499	27961.247
683.627	27927.828
683.755	27837.774
683.883	27764.226
684.012	27713.688
684.140	27621.409
684.268	27673.731
684.396	27608.634
684.524	27543.774
684.652	27532.742
684.780	27477.323
684.908	27448.656
685.037	27423.806
685.165	27338.978
685.293	27355.129
685.421	27258.720
685.549	27184.247
685.677	27124.151
685.805	27087.172
685.933	26998.355
686.062	26961.247
686.190	26835.591
686.318	26841.161
686.446	26787.387
686.574	26714.667
686.702	26706.978
686.830	26653.387
686.958	26641.806
687.087	26483.849
687.215	26520.828
687.343	26391.280
687.471	26487.086
687.599	26282.097
687.727	26213.323
687.855	26156.871
687.983	25994.054
688.112	26038.828
688.240	25997.581
688.368	25938.710
688.496	25825.774
688.624	25821.011
688.752	25888.925
688.880	25687.527
689.008	25590.387
689.137	25570.344
689.265	25436.742
689.393	25410.290
689.521	25330.968
689.649	25385.194
689.777	25268.860
689.905	25274.624
690.033	25038.860
690.162	25006.226
690.290	25018.946
690.418	24908.903
690.546	24851.323
690.674	24842.796
690.802	24806.742
690.930	24606.742
691.058	24559.452
691.187	24419.376
691.315	24402.892
691.443	24349.301
691.571	24282.699
691.699	24182.269
691.827	24097.312
691.955	24029.731
692.083	23946.280
692.212	23906.731
692.340	23830.237
692.468	23788.785
692.596	23730.183
692.724	23588.376
692.852	23557.946
692.980	23479.828
693.108	23497.409
693.237	23295.677
693.365	23205.817
693.493	23159.323
693.621	23098.129
693.749	22980.333
693.877	22975.086
694.005	22789.419
694.133	22723.118
694.262	22721.312
694.390	22515.430
694.518	22505.054
694.646	22463.344
694.774	22321.258
694.902	22240.849
695.030	22210.269
695.158	22060.215
695.287	22086.925
695.415	21959.043
695.543	21862.118
695.671	21713.215
695.799	21814.183
695.927	21621.978
696.055	21584.290
696.183	21442.462
696.312	21607.054
696.440	21348.763
696.568	21327.118
696.696	21118.935
696.824	21010.806
696.952	21002.151
697.080	20920.602
697.208	20815.710
697.337	20747.806
697.465	20673.000
697.593	20559.118
697.721	20585.183
697.849	20441.032
697.977	20437.280
698.105	20415.204
698.233	20305.677
698.362	20123.957
698.490	20213.892
698.618	19994.226
698.746	19913.258
698.874	19905.151
699.002	19813.290
699.130	19786.753
699.258	19675.032
699.387	19548.129
699.515	19555.731
699.643	19485.419
699.771	19428.925
699.899	19265.925
700.027	19163.140
700.155	19164.204
700.283	18987.796
700.412	19012.280
700.540	18961.108
700.668	18906.269
700.796	18802.183
700.924	18694.462
701.052	18652.108
701.180	18603.613
701.308	18483.624
701.437	18431.441
701.565	18357.720
701.693	18295.538
701.821	18417.215
701.949	18111.226
702.077	18038.591
702.205	18075.613
702.333	17899.645
702.462	17853.774
702.590	17799.086
702.718	17694.366
702.846	17800.323
702.974	17565.355
703.102	17478.161
703.230	17403.677
703.358	17297.914
703.487	17273.022
703.615	17162.527
703.743	17029.183
703.871	17026.667
703.999	16899.376
704.127	16862.505
704.255	16782.237
704.383	16728.731
704.512	16724.054
704.640	16611.957
704.768	16557.344
704.896	16408.849
705.024	16334.323
705.152	16305.860
705.280	16297.602
705.408	16147.742
705.537	16082.548
705.665	15999.355
705.793	15879.355
705.921	15836.581
706.049	15751.183
706.177	15756.763
706.305	15569.484
706.433	15550.763
706.562	15508.935
706.690	15477.301
706.818	15391.097
706.946	15293.065
707.074	15218.957
707.202	15117.699
707.330	15081.925
707.458	15016.366
707.587	14921.946
707.715	14880.527
707.843	14850.505
707.971	14827.935
708.099	14647.043
708.227	14582.559
708.355	14478.581
708.483	14458.043
708.612	14423.957
708.740	14338.054
708.868	14282.935
708.996	14275.925
709.124	14207.914
709.252	14115.968
709.380	14122.677
709.508	13968.011
709.637	13967.344
709.765	13892.011
709.893	13845.290
710.021	13727.301
710.149	13801.527
710.277	13603.344
710.405	13576.086
710.533	13513.237
710.662	13440.409
710.790	13528.011
710.918	13321.849
711.046	13365.022
711.174	13217.118
711.302	13249.839
711.430	13145.247
711.558	13091.419
711.687	13047.129
711.815	12967.086
711.943	12937.355
712.071	12890.892
712.199	12838.484
712.327	12877.312
712.455	12695.903
712.583	12815.161
712.712	12633.688
712.840	12642.849
712.968	12534.355
713.096	12463.516
713.224	12399.054
713.352	12375.763
713.480	12285.624
713.608	12265.602
713.737	12143.366
713.865	12182.419
713.993	12137.473
714.121	12098.151
714.249	11934.559
714.377	11967.161
714.505	11860.505
714.633	11815.892
714.762	11721.452
714.890	11752.925
715.018	11706.914
715.146	11678.849
715.274	11573.925
715.402	11550.269
715.530	11516.763
715.658	11499.484
715.787	11401.452
715.915	11472.032
716.043	11291.882
716.171	11394.000
716.299	11186.118
716.427	11255.043
716.555	11141.806
716.683	11062.538
716.812	11023.720
716.940	10932.151
717.068	10922.441
717.196	11025.591
717.324	10857.032
717.452	10797.194
717.580	10808.581
717.708	10618.032
717.837	10636.387
717.965	10606.849
718.093	10547.247
718.221	10510.935
718.349	10539.989
718.477	10390.656
718.605	10457.000
718.733	10323.172
718.862	10309.011
718.990	10210.430
719.118	10235.226
719.246	10138.957
719.374	10052.301
719.502	10057.430
719.630	10128.161
719.758	9901.591
719.887	9890.280
720.015	9855.355
720.143	9843.860
720.271	9707.785
720.399	9735.226
720.527	9617.634
720.655	9690.516
720.783	9569.215
720.912	9514.140
721.040	9459.226
721.168	9449.495
721.296	9321.237
721.424	9300.688
721.552	9252.215
721.680	9268.290
721.808	9192.172
721.937	9160.796
722.065	9135.280
722.193	9059.656
722.321	9000.022
722.449	8957.882
722.577	8873.032
722.705	8822.247
722.833	8805.409
722.962	8788.204
723.090	8686.538
723.218	8653.839
723.346	8667.849
723.474	8561.892
723.602	8480.796
723.730	8433.140
723.858	8383.441
723.987	8377.108
724.115	8329.204
724.243	8346.591
724.371	8210.172
724.499	8184.441
724.627	8142.140
724.755	8097.968
724.883	8162.290
725.012	8207.548
725.140	7985.151
725.268	7891.957
725.396	7934.903
725.524	7974.387
725.652	7756.237
725.780	7874.774
725.908	7699.183
726.037	7661.011
726.165	7629.032
726.293	7581.366
726.421	7516.065
726.549	7539.366
726.677	7461.753
726.805	7368.774
726.933	7392.710
727.062	7305.527
727.190	7265.624
727.318	7236.796
727.446	7198.559
727.574	7113.806
727.702	7085.129
727.830	7109.129
727.958	7057.591
728.087	7083.849
728.215	7098.538
728.343	6937.774
728.471	6934.140
728.599	7009.215
728.727	6784.430
728.855	6767.430
728.983	6718.473
729.112	6715.935
729.240	6634.366
729.368	6613.000
729.496	6602.129
729.624	6580.710
729.752	6508.806
729.880	6484.194
730.008	6452.269
730.137	6430.688
730.265	6377.473
730.393	6470.376
730.521	6413.484
730.649	6207.839
730.777	6131.946
730.905	6133.720
731.033	6081.344
731.162	6190.935
731.290	6128.366
731.418	6004.355
731.546	5990.258
731.674	5941.183
731.802	5883.022
731.930	5961.215
732.058	5954.355
732.187	5841.731
732.315	5826.140
732.443	5911.054
732.571	5831.839
732.699	5807.215
732.827	5798.183
732.955	5688.387
733.083	5681.516
733.212	5632.269
733.340	5571.097
733.468	5547.817
733.596	5544.559
733.724	5501.860
733.852	5519.118
733.980	5480.011
734.108	5584.828
734.237	5410.753
734.365	5401.817
734.493	5366.000
734.621	5299.581
734.749	5283.022
734.877	5270.366
735.005	5267.430
735.133	5219.054
735.262	5289.516
735.390	5180.333
735.518	5167.559
735.646	5204.204
735.774	5169.495
735.902	5160.817
736.030	5035.237
736.158	5022.849
736.287	5044.258
736.415	4983.527
736.543	4968.957
736.671	4916.710
736.799	4925.086
736.927	4872.366
737.055	4971.516
737.183	4840.774
737.312	4810.720
737.440	4801.419
737.568	4849.333
737.696	4820.194
737.824	4743.753
737.952	4988.000
738.080	4676.484
738.208	4705.559
738.337	4647.774
738.465	4642.806
738.593	4604.710
738.721	4567.989
738.849	4610.097
738.977	4516.022
739.105	4522.968
739.233	4481.204
739.362	4452.774
739.490	4426.699
739.618	4445.366
739.746	4445.204
739.874	4374.505
740.002	4365.989
740.130	4355.581
740.258	4276.989
740.387	4313.624
740.515	4263.613
740.643	4282.548
740.771	4297.860
740.899	4174.677
741.027	4153.989
741.155	4146.366
741.283	4130.871
741.412	4200.086
741.540	4133.258
741.668	4094.075
741.796	4142.054
741.924	4011.172
742.052	4160.710
742.180	3987.882
742.308	3941.054
742.437	3989.312
742.565	3924.355
742.693	3988.656
742.821	3882.720
742.949	3838.226
743.077	3885.559
743.205	3781.290
743.333	3811.108
743.462	3789.301
743.590	3724.688
743.718	3761.548
743.846	3709.237
743.974	3730.495
744.102	3644.935
744.230	3681.753
744.358	3644.602
744.487	3603.570
744.615	3585.097
744.743	3549.839
744.871	3535.677
744.999	3586.086
745.127	3490.785
745.255	3447.323
745.383	3478.409
745.512	3437.473
745.640	3424.172
745.768	3379.613
745.896	3453.086
746.024	3401.194
746.152	3320.978
746.280	3373.989
746.408	3306.581
746.537	3361.839
746.665	3278.161
746.793	3235.989
746.921	3218.710
747.049	3256.140
747.177	3171.043
747.305	3398.742
747.433	3151.398
747.562	3123.849
747.690	3168.161
747.818	3210.290
747.946	3069.011
748.074	3071.290
748.202	3080.828
748.330	3024.097
748.458	3022.258
748.587	2961.688
748.715	3046.860
748.843	2949.161
748.971	2931.409
749.099	2946.237
749.227	2923.624
749.355	2960.075
749.483	2828.624
749.612	2907.065
749.740	2872.516
749.868	2838.925
749.996	2877.925
750.124	2899.226
750.252	2835.871
750.380	2783.602
750.508	2752.667
750.637	2731.344
750.765	2917.140
750.893	2715.624
751.021	2660.591
751.149	2720.118
751.277	2705.710
751.405	2672.688
751.533	2649.548
751.662	2610.000
751.790	2773.495
751.918	2618.376
752.046	2619.054
752.174	2617.817
752.302	2618.903
752.430	2586.602
752.558	2599.785
752.687	2557.161
752.815	2587.989
752.943	2539.043
753.071	2547.774
753.199	2536.269
753.327	2537.720
753.455	2518.226
753.583	2490.849
753.712	2486.204
753.840	2481.183
753.968	2464.151
754.096	2456.667
754.224	2463.054
754.352	2403.849
754.480	2441.204
754.608	2415.720
754.737	2396.204
754.865	2383.258
754.993	2376.925
755.121	2364.699
755.249	2319.409
755.377	2291.785
755.505	2313.989
755.633	2300.419
755.762	2283.527
755.890	2286.290
756.018	2247.731
756.146	2228.237
756.274	2205.505
756.402	2222.763
756.530	2204.720
756.658	2191.376
756.787	2167.441
756.915	2161.871
757.043	2128.634
757.171	2122.151
757.299	2134.032
757.427	2093.269
757.555	2088.419
757.683	2091.763
757.812	2081.570
757.940	2045.269
758.068	2053.742
758.196	2041.290
758.324	2006.839
758.452	2018.097
758.580	1995.075
758.708	1992.989
758.837	1995.151
758.965	1987.817
759.093	1969.495
759.221	1920.656
759.349	1927.688
759.477	1910.806
759.605	1879.419
759.733	1902.462
759.862	1878.086
759.990	1881.108
760.118	1861.839
760.246	1862.581
760.374	1862.140
760.502	1828.968
760.630	1810.656
760.758	1809.409
760.887	1793.849
761.015	1786.978
761.143	1785.796
761.271	1772.495
761.399	1751.376
761.527	1749.602
761.655	1751.656
761.783	1713.634
761.912	1707.032
762.040	1703.441
762.168	1679.183
762.296	1675.065
762.424	1678.247
762.552	1674.140
762.680	1645.656
762.808	1656.075
762.937	1642.925
763.065	1611.903
763.193	1604.892
763.321	1596.946
763.449	1580.613
763.577	1566.473
763.705	1579.452
763.833	1573.194
763.962	1541.602
764.090	1536.634
764.218	1527.366
764.346	1514.226
764.474	1515.667
764.602	1483.258
764.730	1496.849
764.858	1491.333
764.987	1484.495
765.115	1466.806
765.243	1448.871
765.371	1444.161
765.499	1441.484
765.627	1437.108
765.755	1440.559
765.883	1416.753
766.012	1397.473
766.140	1398.817
766.268	1388.828
766.396	1386.140
766.524	1379.849
766.652	1352.086
766.780	1358.849
766.908	1352.538
767.037	1371.323
767.165	1349.699
767.293	1344.871
767.421	1334.054
767.549	1313.849
767.677	1335.430
767.805	1308.484
767.933	1299.785
768.062	1289.312
768.190	1280.151
768.318	1283.065
768.446	1271.280
768.574	1253.914
768.702	1276.495
768.830	1259.215
768.958	1234.011
769.087	1246.946
769.215	1238.656
769.343	1231.118
769.471	1230.720
769.599	1230.226
769.727	1226.172
769.855	1194.269
769.983	1236.624
770.112	1201.849
770.240	1194.290
770.368	1186.882
770.496	1173.237
770.624	1177.161
770.752	1162.667
770.880	1178.204
771.008	1145.774
771.137	1148.054
771.265	1143.247
771.393	1133.656
771.521	1142.075
771.649	1141.645
771.777	1160.419
771.905	1172.011
772.033	1155.226
772.162	1108.527
772.290	1097.054
772.418	1110.290
772.546	1089.559
772.674	1088.204
772.802	1084.914
772.930	1077.452
773.058	1069.516
773.187	1072.892
773.315	1072.570
773.443	1065.452
773.571	1070.333
773.699	1054.720
773.827	1055.398
773.955	1063.968
774.083	1042.194
774.212	1029.376
774.340	1031.806
774.468	1009.699
774.596	1018.667
774.724	1031.441
774.852	1019.419
774.980	1017.505
775.108	1008.172
775.237	997.172
775.365	994.344
775.493	993.828
775.621	983.677
775.749	989.645
775.877	992.849
776.005	981.914
776.133	970.527
776.262	964.753
776.390	966.043
776.518	946.495
776.646	946.968
776.774	949.129
776.902	946.366
777.030	931.828
777.158	931.817
777.287	940.989
777.415	916.226
777.543	920.000
777.671	920.871
777.799	919.194
777.927	918.355
778.055	915.473
778.183	902.290
778.312	904.215
778.440	899.581
778.568	921.366
778.696	901.978
778.824	902.183
778.952	887.796
779.080	885.634
779.208	875.871
779.337	876.677
779.465	886.946
779.593	881.817
779.721	869.914
779.849	871.226
779.977	863.118
780.105	854.968
780.233	857.172
780.362	854.484
780.490	837.602
780.618	838.527
780.746	843.075
780.874	834.086
781.002	835.860
781.130	826.860
781.258	818.871
781.387	822.548
781.515	816.000
781.643	803.452
781.771	814.140
781.899	814.957
782.027	795.591
782.155	802.806
782.283	804.344
782.412	807.570
782.540	803.677
782.668	795.430
782.796	787.355
782.924	800.957
783.052	794.000
783.180	772.172
783.308	776.151
783.437	758.613
783.565	779.656
783.693	775.376
783.821	765.387
783.949	769.419
784.077	759.075
784.205	763.548
784.333	747.634
784.462	755.054
784.590	741.505
784.718	735.505
784.846	737.806
784.974	751.312
785.102	728.011
785.230	730.237
785.358	721.548
785.487	725.710
785.615	724.591
785.743	713.129
785.871	728.387
785.999	722.892
786.127	714.914
786.255	707.215
786.383	707.237
786.512	708.817
786.640	703.344
786.768	692.613
786.896	697.495
787.024	680.957
787.152	682.903
787.280	700.000
787.408	687.903
787.537	694.774
787.665	683.656
787.793	676.763
787.921	674.258
788.049	666.785
788.177	659.796
788.305	666.903
788.433	663.312
788.562	652.172
788.690	654.118
788.818	657.849
788.946	648.419
789.074	637.849
789.202	642.935
789.330	637.882
789.458	637.290
789.587	639.129
789.715	642.978
789.843	635.527
789.971	635.699
790.099	620.000
790.227	620.602
790.355	623.548
790.483	628.194
790.612	623.172
790.740	621.731
790.868	617.731
790.996	619.882
791.124	633.290
791.252	617.312
791.380	605.000
791.508	609.118
791.637	607.462
791.765	585.538
791.893	597.430
792.021	608.613
792.149	597.860
792.277	591.183
792.405	581.398
792.533	589.882
792.662	576.914
792.790	584.763
792.918	595.065
793.046	568.495
793.174	577.978
793.302	574.323
793.430	574.376
793.558	573.978
793.687	571.538
793.815	554.656
793.943	575.484
794.071	564.312
794.199	555.011
794.327	556.935
794.455	568.774
794.583	568.215
794.712	549.075
794.840	545.226
794.968	552.022
795.096	556.011
795.224	533.065
795.352	581.462
795.480	525.247
795.608	537.753
795.737	533.645
795.865	523.323
795.993	536.978
796.121	517.505
796.249	515.183
796.377	527.172
796.505	524.108
796.633	522.247
796.762	512.796
796.890	515.624
797.018	515.258
797.146	519.441
797.274	516.312
797.402	508.269
797.530	504.710
797.658	501.183
797.787	511.742
797.915	499.462
798.043	493.226
798.171	506.204
798.299	485.731
798.427	490.527
798.555	497.935
798.683	489.860
798.812	525.118
798.940	538.581
799.068	518.548
799.196	485.312
799.324	487.677
799.452	472.419
799.580	472.720
799.708	472.882
799.837	477.688
799.965	469.344
800.093	472.183
800.221	467.065
800.349	464.452
800.477	458.613
800.605	457.419
800.733	452.656
800.862	462.118
800.990	455.086
801.118	452.075
801.246	452.957
801.374	458.860
801.502	448.419
801.630	455.613
801.758	446.548
801.887	441.957
802.015	442.462
802.143	435.613
802.271	440.376
802.399	432.946
802.527	428.151
802.655	433.312
802.783	429.129
802.912	428.022
803.040	421.785
803.168	421.452
803.296	435.591
803.424	418.753
803.552	429.656
803.680	424.441
803.808	420.430
803.937	417.000
804.065	416.516
804.193	424.796
804.321	423.742
804.449	433.118
804.577	415.677
804.705	429.290
804.833	404.785
804.962	403.462
805.090	415.538
805.218	401.559
805.346	404.043
805.474	411.688
805.602	404.581
805.730	421.301
805.858	396.011
805.987	390.817
806.115	394.591
806.243	404.462
806.371	396.065
806.499	389.161
806.627	386.505
806.755	388.753
806.883	391.968
807.012	380.903
807.140	390.269
807.268	380.989
807.396	388.753
807.524	379.043
807.652	396.828
807.780	379.054
807.908	384.656
808.037	398.484
808.165	389.710
808.293	374.860
808.421	368.323
808.549	370.860
808.677	373.656
808.805	385.258
808.933	369.312
809.062	366.194
809.190	384.333
809.318	376.366
809.446	361.785
809.574	371.710
809.702	367.237
809.830	351.968
809.958	366.301
810.087	362.118
810.215	362.054
810.343	359.441
810.471	361.710
810.599	345.667
810.727	362.129
810.855	349.172
810.983	357.065
811.112	357.785
811.240	345.452
811.368	351.172
811.496	362.194
811.624	351.968
811.752	347.602
811.880	362.591
812.008	352.204
812.137	360.237
812.265	347.667
812.393	342.032
812.521	334.161
812.649	346.140
812.777	331.054
812.905	342.452
813.033	346.892
813.162	332.656
813.290	333.527
813.418	340.710
813.546	333.495
813.674	336.247
813.802	327.656
813.930	330.183
814.058	328.935
814.187	333.753
814.315	329.022
814.443	325.247
814.571	327.871
814.699	314.194
814.827	330.763
814.955	328.312
815.083	322.914
815.212	327.344
815.340	317.419
815.468	330.645
815.596	315.570
815.724	327.376
815.852	328.280
815.980	315.183
816.108	320.688
816.237	324.194
816.365	330.699
816.493	318.409
816.621	328.011
816.749	305.065
816.877	381.753
817.005	326.215
817.133	327.720
817.262	313.978
817.390	308.634
817.518	319.914
817.646	307.151
817.774	303.731
817.902	302.677
818.030	302.559
818.158	301.849
818.287	305.538
818.415	300.645
818.543	298.731
818.671	302.376
818.799	303.763
818.927	300.097
819.055	320.140
819.183	308.656
819.312	316.828
819.440	296.140
819.568	291.032
819.696	296.806
819.824	299.516
819.952	299.140
820.080	297.882
820.208	293.849
820.337	300.581
820.465	295.290
820.593	293.839
820.721	294.366
820.849	286.452
820.977	289.312
821.105	295.011
821.233	286.054
821.362	289.871
821.490	285.430
821.618	293.699
821.746	294.387
821.874	286.108
822.002	278.161
822.130	285.914
822.258	290.763
822.387	285.978
822.515	287.430
822.643	279.946
822.771	279.280
822.899	289.312
823.027	280.989
823.155	284.172
823.283	298.828
823.412	291.237
823.540	274.108
823.668	271.882
823.796	280.129
823.924	275.387
824.052	279.624
824.180	282.516
824.308	275.505
824.437	284.280
824.565	277.473
824.693	264.699
824.821	269.570
824.949	274.183
825.077	272.398
825.205	262.118
825.333	271.462
825.462	271.634
825.590	272.054
825.718	262.247
825.846	271.011
825.974	271.075
826.102	269.419
826.230	272.505
826.358	270.968
826.487	269.075
826.615	263.946
826.743	258.032
826.871	270.925
826.999	262.731
827.127	268.753
827.255	260.527
827.383	263.430
827.512	259.172
827.640	265.505
827.768	283.828
827.896	257.312
828.024	262.559
828.152	260.624
828.280	254.495
828.408	255.882
828.537	262.828
828.665	255.667
828.793	258.817
828.921	256.817
829.049	259.355
829.177	256.559
829.305	257.054
829.433	255.301
829.562	257.011
829.690	261.151
829.818	262.366
829.946	253.602
830.074	251.247
830.202	247.935
830.330	249.946
830.458	244.215
830.587	261.419
830.715	240.140
830.843	246.065
830.971	256.065
831.099	246.527
831.227	272.086
831.355	240.753
831.483	249.204
831.612	252.505
831.740	245.839
831.868	243.312
831.996	257.527
832.124	240.484
832.252	251.065
832.380	244.882
832.508	246.849
832.637	241.634
832.765	249.505
832.893	243.785
833.021	245.978
833.149	242.043
833.277	244.172
833.405	248.419
833.533	234.935
833.662	248.505
833.790	236.978
833.918	242.774
834.046	239.247
834.174	238.097
834.302	244.140
834.430	238.054
834.558	240.570
834.687	244.484
834.815	235.011
834.943	237.656
835.071	242.634
835.199	236.763
835.327	234.634
835.455	247.097
835.583	235.086
835.712	235.634
835.840	238.204
835.968	233.086
836.096	245.022
836.224	230.656
836.352	237.742
836.480	232.559
836.608	225.710
836.737	235.871
836.865	230.366
836.993	239.140
837.121	241.602
837.249	233.344
837.377	222.280
837.505	227.086
837.633	229.548
837.762	235.828
837.890	234.839
838.018	234.409
838.146	228.581
838.274	224.817
838.402	228.108
838.530	242.935
838.658	232.828
838.787	234.720
838.915	222.570
839.043	234.054
839.171	224.097
839.299	230.613
839.427	247.871
839.555	236.108
839.683	226.172
839.812	226.301
839.940	217.989
840.068	225.581
840.196	251.452
840.324	236.849
840.452	223.688
840.580	221.828
840.708	217.731
840.837	222.516
840.965	222.882
841.093	217.828
841.221	225.290
841.349	223.473
841.477	215.183
841.605	218.226
841.733	220.903
841.862	230.129
841.990	223.430
842.118	217.344
842.246	228.301
842.374	212.753
842.502	231.785
842.630	220.387
842.758	217.108
842.887	226.247
843.015	234.957
843.143	210.333
843.271	216.333
843.399	217.495
843.527	220.118
843.655	211.742
843.783	215.516
843.912	215.333
844.040	213.527
844.168	218.656
844.296	232.086
844.424	226.280
844.552	226.398
844.680	215.688
844.808	213.075
844.937	216.323
845.065	218.548
845.193	229.215
845.321	216.581
845.449	219.882
845.577	217.376
845.705	213.914
845.833	210.989
845.962	225.462
846.090	215.258
846.218	226.656
846.346	218.720
846.474	215.581
846.602	210.817
846.730	214.323
846.858	214.419
846.987	212.774
847.115	223.871
847.243	222.516
847.371	205.333
847.499	209.699
847.627	211.387
847.755	208.849
847.883	221.215
848.012	223.237
848.140	202.817
848.268	205.667
848.396	210.860
848.524	214.172
848.652	209.505
848.780	204.344
848.908	212.785
849.037	209.108
849.165	208.344
849.293	213.441
849.421	208.290
849.549	210.419
849.677	208.538
849.805	215.946
849.933	204.774
850.062	214.333
850.190	210.151
850.318	206.742
850.446	212.613
850.574	207.366
850.702	203.301
850.830	202.935
850.958	206.376
851.087	211.753
851.215	202.903
851.343	204.645
851.471	207.871
851.599	212.172
851.727	210.462
851.855	205.785
851.983	214.172
852.112	208.280
852.240	215.022
852.368	215.860
852.496	204.280
852.624	209.581
852.752	213.860
852.880	211.860
853.008	202.656
853.137	206.022
853.265	210.624
853.393	202.215
853.521	204.086
853.649	209.656
853.777	196.892
853.905	198.968
854.033	204.312
854.162	198.570
854.290	205.591
854.418	219.624
854.546	237.699
854.674	222.419
854.802	207.409
854.930	201.763
855.058	212.473
855.187	201.011
855.315	217.054
855.443	205.280
855.571	208.785
855.699	213.720
855.827	200.258
855.955	201.817
856.083	198.140
856.212	203.796
856.340	206.000
856.468	203.194
856.596	204.452
856.724	206.108
856.852	219.731
856.980	200.742
857.108	197.849
857.237	195.280
857.365	205.570
857.493	206.204
857.621	196.946
857.749	197.140
857.877	198.548
858.005	197.000
858.133	205.032
858.262	194.527
858.390	196.957
858.518	196.312
858.646	202.118
858.774	196.441
858.902	196.817
859.030	203.140
859.158	199.785
859.287	201.484
859.415	202.892
859.543	193.581
859.671	199.441
859.799	209.452
859.927	195.161
860.055	194.516
860.183	191.129
860.312	196.194
860.440	202.419
860.568	190.118
860.696	206.301
860.824	212.710
860.952	193.871
861.080	196.774
861.208	203.108
861.337	195.161
861.465	208.538
861.593	200.247
861.721	206.753
861.849	196.194
861.977	194.032
862.105	196.968
862.233	197.871
862.362	193.763
862.490	191.398
862.618	192.656
862.746	199.430
862.874	197.473
863.002	201.215
863.130	199.602
863.258	196.548
863.387	198.366
863.515	204.237
863.643	205.860
863.771	199.140
863.899	195.914
864.027	199.161
864.155	228.097
864.283	199.591
864.412	192.269
864.540	196.860
864.668	188.742
864.796	194.839
864.924	194.344
865.052	192.118
865.180	212.645
865.308	195.247
865.437	196.344
865.565	191.656
865.693	187.613
865.821	191.258
865.949	209.882
866.077	198.731
866.205	198.548
866.333	200.935
866.462	185.667
866.590	198.484
866.718	199.731
866.846	191.753
866.974	198.495
867.102	191.516
867.230	201.140
867.358	192.269
867.487	200.989
867.615	207.473
867.743	193.462
867.871	203.527
867.999	192.925
868.127	204.473
868.255	212.161
868.383	184.656
868.512	197.989
868.640	189.677
868.768	189.968
868.896	199.129
869.024	186.366
869.152	190.204
869.280	185.774
869.408	189.720
869.537	190.151
869.665	185.538
869.793	193.742
869.921	193.333
870.049	183.129
870.177	190.086
870.305	185.968
870.433	194.903
870.562	195.333
870.690	188.860
870.818	198.688
870.946	192.065
871.074	184.161
871.202	189.301
871.330	179.882
871.458	188.022
871.587	193.043
871.715	191.312
871.843	191.677
871.971	199.419
872.099	187.688
872.227	197.366
872.355	186.968
872.483	186.409
872.612	195.989
872.740	193.753
872.868	190.032
872.996	197.323
873.124	202.634
873.252	193.527
873.380	183.903
873.508	195.860
873.637	198.366
873.765	185.226
873.893	187.247
874.021	193.032
874.149	188.344
874.277	191.043
874.405	198.301
874.533	200.677
874.662	191.935
874.790	197.323
874.918	186.634
875.046	188.484
875.174	188.065
875.302	188.946
875.430	186.043
875.558	194.839
875.687	192.441
875.815	191.806
875.943	196.000
876.071	189.258
876.199	191.968
876.327	191.419
876.455	194.559
876.583	184.559
876.712	199.914
876.840	191.624
876.968	189.215
877.096	188.387
877.224	191.161
877.352	184.129
877.480	191.430
877.608	201.237
877.737	196.269
877.865	186.688
877.993	193.774
878.121	193.548
878.249	190.828
878.377	186.763
878.505	193.656
878.633	190.871
878.762	184.796
878.890	187.000
879.018	195.667
879.146	190.699
879.274	219.108
879.402	193.806
879.530	191.172
879.658	188.452
879.787	196.624
879.915	182.731
880.043	185.172
880.171	228.129
880.299	192.151
880.427	190.516
880.555	182.731
880.683	194.247
880.812	189.935
880.940	185.484
881.068	196.376
881.196	190.398
881.324	185.215
881.452	182.129
881.580	197.290
881.708	185.355
881.837	192.688
881.965	187.763
882.093	181.753
882.221	183.849
882.349	184.753
882.477	187.022
882.605	188.484
882.733	191.989
882.862	184.892
882.990	201.204
883.118	199.591
883.246	197.624
883.374	187.129
883.502	196.806
883.630	193.151
883.758	190.129
883.887	192.667
884.015	189.645
884.143	193.903
884.271	187.903
884.399	183.613
884.527	191.613
884.655	187.226
884.783	195.871
884.912	217.473
885.040	197.860
885.168	184.871
885.296	198.473
885.424	187.548
885.552	188.226
885.680	201.720
885.808	197.097
885.937	199.656
886.065	193.011
886.193	189.989
886.321	190.828
886.449	189.978
886.577	189.591
886.705	200.817
886.833	177.634
886.962	191.849
887.090	193.849
887.218	187.269
887.346	184.043
887.474	186.602
887.602	192.140
887.730	180.000
887.858	184.237
887.987	185.366
888.115	190.946
888.243	184.376
888.371	199.849
888.499	186.796
888.627	185.796
888.755	197.720
888.883	190.882
889.012	191.806
889.140	190.344
889.268	192.785
889.396	183.559
889.524	193.570
889.652	183.957
889.780	188.548
889.908	190.161
890.037	197.247
890.165	182.720
890.293	194.344
890.421	186.570
890.549	181.505
890.677	181.591
890.805	193.806
890.933	186.194
891.062	187.989
891.190	192.065
891.318	183.978
891.446	189.484
891.574	181.323
891.702	185.129
891.830	182.989
891.958	195.892
892.087	197.602
892.215	192.204
892.343	190.118
892.471	191.538
892.599	181.882
892.727	194.860
892.855	209.161
892.983	179.839
893.112	184.441
893.240	193.935
893.368	185.753
893.496	197.097
893.624	183.183
893.752	207.882
893.880	180.839
894.008	192.258
894.137	181.935
894.265	189.935
894.393	185.398
894.521	191.871
894.649	190.570
894.777	184.430
894.905	229.699
895.033	184.871
895.162	185.742
895.290	193.828
895.418	187.280
895.546	222.484
895.674	190.989
895.802	229.376
895.930	190.075
896.058	185.129
896.187	185.118
896.315	182.215
896.443	200.280
896.571	213.753
896.699	186.613
896.827	185.602
896.955	186.849
897.083	189.376
897.212	183.892
897.340	186.108
897.468	188.011
897.596	186.204
897.724	184.720
897.852	181.495
897.980	176.387
898.108	193.548
898.237	183.968
898.365	182.806
898.493	193.978
898.621	183.871
898.749	185.118
898.877	180.710
899.005	186.634
899.133	183.860
899.262	196.978
899.390	181.516
899.518	187.333
899.646	180.226
899.774	179.484
899.902	181.022
900.030	195.151
900.158	183.430
900.287	186.559
900.415	181.237
900.543	186.602
900.671	191.677
900.799	187.774
900.927	178.935
901.055	191.806
901.183	192.753
901.312	191.183
901.440	179.000
901.568	178.925
901.696	182.828
901.824	181.194
901.952	180.086
902.080	186.215
902.208	184.452
902.337	192.688
902.465	178.538
902.593	197.731
902.721	210.602
902.849	203.849
902.977	185.806
903.105	186.140
903.233	181.677
903.362	177.355
903.490	186.968
903.618	181.645
903.746	178.495
903.874	181.720
904.002	185.333
904.130	195.333
904.258	174.527
904.387	190.645
904.515	175.591
904.643	189.065
904.771	184.097
904.899	180.333
905.027	190.011
905.155	183.258
905.283	177.000
905.412	188.763
905.540	179.677
905.668	180.645
905.796	183.495
905.924	185.280
906.052	182.312
906.180	187.172
906.308	181.151
906.437	180.065
906.565	183.688
906.693	194.032
906.821	174.828
906.949	183.172
907.077	179.000
907.205	189.011
907.333	172.667
907.462	177.344
907.590	181.699
907.718	181.108
907.846	188.247
907.974	179.280
908.102	181.699
908.230	180.688
908.358	183.194
908.487	177.151
908.615	194.172
908.743	188.785
908.871	183.441
908.999	174.892
909.127	173.871
909.255	192.774
909.383	179.946
909.512	176.140
909.640	193.634
909.768	181.817
909.896	187.624
910.024	187.559
910.152	188.183
910.280	186.376
910.408	177.290
910.537	179.108
910.665	186.785
910.793	184.538
910.921	180.602
911.049	189.516
911.177	191.505
911.305	181.828
911.433	180.559
911.562	190.667
911.690	186.935
911.818	186.151
911.946	182.753
912.074	187.742
912.202	179.000
912.330	204.086
912.458	180.699
912.587	183.419
912.715	186.323
912.843	193.194
912.971	189.613
913.099	199.753
913.227	194.043
913.355	187.753
913.483	201.667
913.612	194.613
913.740	211.086
913.868	188.968
