70_100_wo_Pol_at_750.00nm_cut_at_1184.50Y_01.dat
03.07.2023
10:36:26
cut middle at Y: 1184.50
top cursor: 1231 down cursor: 1138 mean of: 93 lines , 2560 datapoints
wavelength(nm)	intensity[arb. units]
585.996	28020.989
586.124	27595.731
586.252	27613.753
586.380	27634.183
586.508	27778.226
586.637	27855.860
586.765	27893.903
586.893	28008.462
587.021	28027.591
587.149	28115.462
587.277	28210.118
587.405	28212.849
587.533	28320.011
587.662	28356.280
587.790	28341.914
587.918	28323.677
588.046	28356.516
588.174	28479.462
588.302	28462.108
588.430	28488.108
588.558	28489.624
588.687	28570.753
588.815	28651.118
588.943	28579.914
589.071	28562.161
589.199	28652.290
589.327	28692.968
589.455	28696.774
589.583	28692.269
589.712	28733.624
589.840	28647.839
589.968	28708.452
590.096	28793.409
590.224	28809.247
590.352	28978.903
590.480	28836.183
590.608	28774.495
590.737	28803.215
590.865	28906.065
590.993	28787.839
591.121	28804.849
591.249	28909.602
591.377	28988.269
591.505	28998.602
591.633	28937.086
591.762	28969.935
591.890	29041.516
592.018	29098.731
592.146	29159.688
592.274	29089.935
592.402	29139.935
592.530	29384.226
592.658	29332.710
592.787	29318.075
592.915	29457.516
593.043	29308.484
593.171	29440.204
593.299	29474.581
593.427	29514.301
593.555	29645.118
593.683	29637.828
593.812	29686.172
593.940	29789.817
594.068	29831.376
594.196	29890.376
594.324	29913.237
594.452	30166.000
594.580	30114.634
594.708	30280.978
594.837	30290.839
594.965	30433.699
595.093	30508.774
595.221	30699.108
595.349	30669.473
595.477	30658.570
595.605	30832.527
595.733	30871.849
595.862	30902.613
595.990	30936.946
596.118	31027.677
596.246	31164.419
596.374	31193.946
596.502	31245.774
596.630	31314.161
596.758	31302.140
596.887	31494.430
597.015	31538.269
597.143	31524.570
597.271	31492.935
597.399	31702.022
597.527	31657.441
597.655	31697.312
597.783	31718.828
597.912	31773.828
598.040	31819.161
598.168	31819.849
598.296	31781.634
598.424	31996.473
598.552	31821.968
598.680	31910.925
598.808	31993.129
598.937	31970.677
599.065	31949.538
599.193	32016.527
599.321	32021.849
599.449	31948.419
599.577	31981.892
599.705	31985.398
599.833	31967.559
599.962	31958.398
600.090	32012.376
600.218	31888.731
600.346	31992.806
600.474	32007.398
600.602	32031.172
600.730	32034.796
600.858	32140.860
600.987	32250.817
601.115	32178.280
601.243	32282.462
601.371	32321.667
601.499	32291.430
601.627	32480.172
601.755	32453.312
601.883	32515.011
602.012	32422.613
602.140	32521.333
602.268	32526.140
602.396	32804.710
602.524	32878.473
602.652	33011.548
602.780	33006.312
602.908	33118.753
603.037	33292.151
603.165	33334.989
603.293	33419.258
603.421	33510.860
603.549	33612.054
603.677	33678.398
603.805	33867.849
603.933	33931.097
604.062	34180.581
604.190	34270.634
604.318	34372.011
604.446	34423.860
604.574	34579.473
604.702	34726.140
604.830	34754.978
604.958	34880.806
605.087	35040.183
605.215	35313.194
605.343	35391.968
605.471	35471.914
605.599	35546.946
605.727	35732.527
605.855	35820.366
605.983	35971.333
606.112	36069.484
606.240	36154.699
606.368	36165.000
606.496	36261.118
606.624	36381.398
606.752	36457.441
606.880	36630.097
607.008	36677.839
607.137	36673.022
607.265	36884.355
607.393	36881.591
607.521	36983.710
607.649	37044.140
607.777	36996.774
607.905	37115.828
608.033	37135.677
608.162	37168.731
608.290	37139.839
608.418	37309.398
608.546	37353.430
608.674	37411.419
608.802	37310.839
608.930	37351.656
609.058	37429.710
609.187	37468.054
609.315	37449.785
609.443	37537.978
609.571	37629.161
609.699	37434.032
609.827	37591.688
609.955	37557.247
610.083	37549.495
610.212	37604.215
610.340	37564.796
610.468	37661.495
610.596	37670.656
610.724	37630.462
610.852	37707.634
610.980	37762.978
611.108	37801.452
611.237	37809.742
611.365	37900.323
611.493	37840.075
611.621	37970.312
611.749	38015.237
611.877	38070.935
612.005	38131.989
612.133	38242.538
612.262	38276.462
612.390	38331.280
612.518	38486.570
612.646	38579.495
612.774	38668.312
612.902	38711.258
613.030	38808.968
613.158	38752.194
613.287	38940.097
613.415	38961.086
613.543	39093.075
613.671	39095.183
613.799	39210.301
613.927	39354.140
614.055	39536.828
614.183	39610.301
614.312	39630.441
614.440	39830.409
614.568	39870.978
614.696	40078.731
614.824	40079.527
614.952	40222.323
615.080	40284.065
615.208	40483.968
615.337	40640.000
615.465	40586.484
615.593	40834.989
615.721	40875.075
615.849	41036.538
615.977	41120.000
616.105	41258.731
616.233	41442.720
616.362	41632.591
616.490	41596.516
616.618	41745.301
616.746	41882.409
616.874	42011.183
617.002	42192.409
617.130	42194.387
617.258	42187.140
617.387	42379.591
617.515	42486.570
617.643	42548.075
617.771	42700.538
617.899	42682.409
618.027	42784.946
618.155	42903.011
618.283	43023.871
618.412	43146.978
618.540	43256.774
618.668	43184.548
618.796	43339.011
618.924	43336.204
619.052	43467.022
619.180	43493.989
619.308	43490.624
619.437	43600.043
619.565	43644.097
619.693	43615.785
619.821	43771.301
619.949	43855.796
620.077	43911.484
620.205	44045.011
620.333	44006.065
620.462	44061.860
620.590	44121.892
620.718	44177.204
620.846	44286.312
620.974	44288.677
621.102	44354.656
621.230	44363.022
621.358	44553.957
621.487	44512.753
621.615	44544.075
621.743	44482.043
621.871	44582.538
621.999	44608.882
622.127	44638.000
622.255	44758.011
622.383	44679.849
622.512	44752.452
622.640	44749.527
622.768	44908.935
622.896	44964.538
623.024	44936.667
623.152	45014.398
623.280	45101.355
623.408	45142.301
623.537	45211.796
623.665	45194.312
623.793	45288.237
623.921	45256.226
624.049	45350.269
624.177	45365.957
624.305	45358.011
624.433	45430.710
624.562	45515.161
624.690	45598.817
624.818	45535.344
624.946	45476.065
625.074	45612.871
625.202	45605.000
625.330	45601.763
625.458	45838.495
625.587	45828.280
625.715	45867.075
625.843	45896.204
625.971	46042.785
626.099	46018.559
626.227	46056.054
626.355	46063.806
626.483	46126.978
626.612	46167.645
626.740	46353.000
626.868	46392.108
626.996	46451.538
627.124	46549.043
627.252	46573.419
627.380	46676.419
627.508	46665.495
627.637	46773.075
627.765	46914.505
627.893	46933.011
628.021	46997.065
628.149	46958.495
628.277	47121.161
628.405	47164.763
628.533	47282.237
628.662	47331.237
628.790	47451.613
628.918	47527.000
629.046	47715.613
629.174	47612.452
629.302	47796.161
629.430	47855.430
629.558	47914.505
629.687	47983.237
629.815	48150.527
629.943	48371.806
630.071	48384.312
630.199	48539.387
630.327	48662.806
630.455	48631.935
630.583	48777.301
630.712	48817.247
630.840	49015.194
630.968	48975.226
631.096	49093.710
631.224	49197.323
631.352	49347.065
631.480	49374.409
631.608	49649.247
631.737	49590.129
631.865	49703.516
631.993	49783.097
632.121	50011.140
632.249	50010.022
632.377	50023.118
632.505	50106.903
632.633	50378.839
632.762	50234.022
632.890	50310.398
633.018	50362.892
633.146	50406.903
633.274	50440.290
633.402	50597.355
633.530	50552.925
633.658	50638.430
633.787	50637.785
633.915	50710.419
634.043	50767.688
634.171	50847.634
634.299	50860.280
634.427	50883.699
634.555	51108.505
634.683	50958.624
634.812	51011.731
634.940	50911.011
635.068	50968.892
635.196	50925.226
635.324	50984.387
635.452	50894.871
635.580	51113.796
635.708	50973.527
635.837	51053.656
635.965	50988.000
636.093	50956.527
636.221	50894.538
636.349	50841.645
636.477	50864.914
636.605	50956.419
636.733	50843.645
636.862	50840.140
636.990	50832.194
637.118	50755.290
637.246	50714.118
637.374	50876.591
637.502	50598.699
637.630	50612.441
637.758	50609.086
637.887	50529.419
638.015	50619.258
638.143	50464.065
638.271	50398.280
638.399	50495.645
638.527	50364.720
638.655	50423.323
638.783	50289.914
638.912	50323.710
639.040	50240.989
639.168	50140.828
639.296	50240.000
639.424	50343.237
639.552	50162.000
639.680	50232.763
639.808	50133.333
639.937	50176.194
640.065	50200.613
640.193	50170.796
640.321	50306.667
640.449	50300.968
640.577	50283.892
640.705	50298.000
640.833	50181.871
640.962	50368.054
641.090	50219.892
641.218	50211.075
641.346	50367.323
641.474	50399.075
641.602	50428.527
641.730	50477.946
641.858	50393.624
641.987	50455.312
642.115	50732.441
642.243	50602.903
642.371	50795.462
642.499	50519.892
642.627	50707.849
642.755	50640.000
642.883	50753.333
643.012	50735.376
643.140	50857.366
643.268	50904.957
643.396	50930.871
643.524	50990.054
643.652	51056.892
643.780	51065.215
643.908	51079.172
644.037	51206.720
644.165	51232.452
644.293	51359.462
644.421	51195.634
644.549	51366.613
644.677	51312.785
644.805	51302.075
644.933	51299.344
645.062	51457.688
645.190	51569.172
645.318	51547.935
645.446	51464.183
645.574	51506.742
645.702	51459.527
645.830	51560.355
645.958	51521.097
646.087	51518.688
646.215	51549.409
646.343	51511.505
646.471	51684.935
646.599	51489.194
646.727	51580.796
646.855	51579.280
646.983	51493.624
647.112	51599.376
647.240	51439.516
647.368	51573.935
647.496	51517.882
647.624	51549.183
647.752	51397.914
647.880	51539.667
648.008	51464.527
648.137	51549.602
648.265	51483.968
648.393	51520.774
648.521	51445.538
648.649	51525.495
648.777	51394.247
648.905	51268.591
649.033	51272.301
649.162	51091.720
649.290	51066.484
649.418	51059.677
649.546	51208.086
649.674	51054.075
649.802	50894.086
649.930	50777.280
650.058	50798.022
650.187	50767.022
650.315	50720.247
650.443	50728.613
650.571	50456.925
650.699	50558.022
650.827	50473.247
650.955	50224.882
651.083	50413.538
651.212	50242.925
651.340	50235.075
651.468	50137.129
651.596	50104.118
651.724	50016.935
651.852	49960.516
651.980	50025.710
652.108	49784.978
652.237	49845.409
652.365	49707.301
652.493	49646.032
652.621	49575.699
652.749	49547.774
652.877	49522.548
653.005	49446.742
653.133	49416.914
653.262	49230.882
653.390	49167.312
653.518	49267.613
653.646	49135.172
653.774	49010.538
653.902	49047.935
654.030	48899.484
654.158	48784.301
654.287	48767.581
654.415	48641.172
654.543	48760.882
654.671	48659.140
654.799	48500.183
654.927	48441.032
655.055	48354.054
655.183	48357.968
655.312	48341.065
655.440	48267.624
655.568	48179.796
655.696	48068.860
655.824	48055.118
655.952	48032.774
656.080	47880.602
656.208	47885.387
656.337	47870.333
656.465	47912.570
656.593	47653.839
656.721	47674.097
656.849	47675.129
656.977	47432.570
657.105	47384.452
657.233	47406.613
657.362	47400.441
657.490	47273.290
657.618	47279.935
657.746	47181.559
657.874	46945.581
658.002	46859.731
658.130	46663.753
658.258	46682.452
658.387	46667.065
658.515	46587.742
658.643	46481.871
658.771	46506.505
658.899	46448.075
659.027	46390.505
659.155	46229.484
659.283	46188.011
659.412	46104.602
659.540	46106.473
659.668	46025.957
659.796	46079.516
659.924	46019.419
660.052	46036.355
660.180	45979.108
660.308	46016.849
660.437	45939.054
660.565	45779.097
660.693	45607.785
660.821	45654.882
660.949	45460.108
661.077	45385.581
661.205	45563.280
661.333	45359.677
661.462	45267.054
661.590	45210.839
661.718	45034.204
661.846	45064.828
661.974	44986.269
662.102	44976.925
662.230	44831.269
662.358	44713.527
662.487	44717.828
662.615	44743.538
662.743	44601.968
662.871	44667.602
662.999	44512.774
663.127	44369.634
663.255	44359.237
663.383	44405.452
663.512	44187.065
663.640	44166.882
663.768	44168.462
663.896	44054.581
664.024	44006.000
664.152	43933.656
664.280	44007.903
664.408	43870.720
664.537	43773.828
664.665	43738.925
664.793	43733.161
664.921	43675.548
665.049	43718.731
665.177	43533.065
665.305	43517.473
665.433	43551.914
665.562	43553.183
665.690	43396.946
665.818	43600.237
665.946	43291.763
666.074	43198.118
666.202	43222.516
666.330	43136.613
666.458	43250.753
666.587	43049.409
666.715	43012.570
666.843	42890.516
666.971	42905.903
667.099	42816.946
667.227	42835.570
667.355	42777.183
667.483	42719.957
667.612	42727.688
667.740	42643.387
667.868	42488.849
667.996	42509.989
668.124	42497.215
668.252	42487.624
668.380	42341.366
668.508	42338.839
668.637	42201.462
668.765	42192.903
668.893	42103.204
669.021	42001.839
669.149	41994.645
669.277	41882.108
669.405	41991.602
669.533	41876.108
669.662	41703.140
669.790	41669.226
669.918	41596.333
670.046	41703.613
670.174	41374.774
670.302	41389.624
670.430	41209.667
670.558	41246.785
670.687	41285.301
670.815	41076.828
670.943	41043.409
671.071	40970.237
671.199	40798.849
671.327	40746.452
671.455	40854.032
671.583	40594.129
671.712	40528.753
671.840	40429.559
671.968	40519.151
672.096	40367.441
672.224	40180.495
672.352	40104.645
672.480	39966.333
672.608	39878.086
672.737	39783.258
672.865	39692.839
672.993	39601.935
673.121	39547.419
673.249	39452.194
673.377	39361.269
673.505	39233.409
673.633	39207.634
673.762	39073.376
673.890	38991.215
674.018	38945.151
674.146	38775.011
674.274	38778.688
674.402	38688.763
674.530	38554.860
674.658	38354.022
674.787	38330.032
674.915	38367.602
675.043	38202.882
675.171	37984.194
675.299	37902.140
675.427	37838.892
675.555	37767.355
675.683	37703.839
675.812	37508.452
675.940	37483.237
676.068	37302.140
676.196	37295.376
676.324	37063.118
676.452	37068.591
676.580	36897.097
676.708	36858.817
676.837	36734.032
676.965	36727.538
677.093	36738.247
677.221	36451.086
677.349	36290.011
677.477	36277.989
677.605	36106.957
677.733	36044.839
677.862	35973.849
677.990	35869.075
678.118	35809.226
678.246	35700.548
678.374	35660.731
678.502	35468.527
678.630	35408.290
678.758	35344.882
678.887	35426.323
679.015	35100.452
679.143	35055.312
679.271	34939.667
679.399	34923.548
679.527	34796.699
679.655	34833.387
679.783	34547.591
679.912	34478.731
680.040	34565.591
680.168	34416.505
680.296	34276.075
680.424	34271.172
680.552	34110.247
680.680	34049.935
680.808	33890.344
680.937	33880.301
681.065	33853.484
681.193	33719.473
681.321	33565.914
681.449	33653.419
681.577	33466.258
681.705	33446.011
681.833	33377.441
681.962	33337.398
682.090	33246.634
682.218	33218.796
682.346	33112.516
682.474	33001.430
682.602	32954.796
682.730	32884.753
682.858	32822.172
682.987	32790.516
683.115	32710.645
683.243	32634.849
683.371	32671.720
683.499	32556.817
683.627	32514.559
683.755	32395.473
683.883	32388.172
684.012	32331.065
684.140	32236.731
684.268	32205.634
684.396	32215.215
684.524	32108.871
684.652	32141.806
684.780	32016.914
684.908	31864.441
685.037	31929.935
685.165	31870.247
685.293	31828.527
685.421	31826.280
685.549	31728.957
685.677	31647.086
685.805	31572.441
685.933	31484.097
686.062	31498.903
686.190	31367.194
686.318	31326.043
686.446	31283.914
686.574	31197.505
686.702	31223.000
686.830	31086.548
686.958	31131.151
687.087	31061.935
687.215	30967.484
687.343	30879.032
687.471	31018.882
687.599	30760.720
687.727	30692.548
687.855	30637.430
687.983	30514.151
688.112	30550.269
688.240	30520.473
688.368	30427.366
688.496	30282.753
688.624	30213.301
688.752	30294.925
688.880	30137.000
689.008	30050.172
689.137	30060.527
689.265	29906.183
689.393	29877.151
689.521	29801.548
689.649	29839.280
689.777	29664.086
689.905	29707.968
690.033	29510.978
690.162	29416.538
690.290	29461.258
690.418	29299.000
690.546	29358.376
690.674	29221.871
690.802	29156.892
690.930	29058.269
691.058	28976.559
691.187	28849.495
691.315	28841.527
691.443	28750.978
691.571	28695.806
691.699	28568.828
691.827	28513.183
691.955	28482.462
692.083	28404.258
692.212	28370.849
692.340	28281.796
692.468	28205.387
692.596	28112.430
692.724	27985.280
692.852	27991.753
692.980	27865.828
693.108	27869.699
693.237	27689.495
693.365	27567.774
693.493	27547.688
693.621	27503.871
693.749	27351.323
693.877	27317.022
694.005	27189.753
694.133	27065.699
694.262	27055.667
694.390	26895.280
694.518	26817.452
694.646	26806.624
694.774	26700.108
694.902	26615.269
695.030	26543.989
695.158	26418.312
695.287	26320.581
695.415	26314.602
695.543	26185.882
695.671	26092.731
695.799	26110.892
695.927	25916.398
696.055	25864.957
696.183	25668.624
696.312	25868.204
696.440	25694.656
696.568	25619.860
696.696	25392.452
696.824	25250.054
696.952	25221.022
697.080	25141.075
697.208	25066.430
697.337	24999.516
697.465	24882.022
697.593	24757.677
697.721	24813.172
697.849	24634.022
697.977	24613.452
698.105	24566.581
698.233	24453.226
698.362	24342.978
698.490	24384.301
698.618	24177.355
698.746	24137.366
698.874	24114.505
699.002	23997.000
699.130	23925.269
699.258	23828.290
699.387	23718.978
699.515	23713.366
699.643	23654.269
699.771	23595.333
699.899	23404.828
700.027	23327.968
700.155	23299.366
700.283	23166.215
700.412	23124.086
700.540	23042.989
700.668	23052.086
700.796	22869.570
700.924	22769.054
701.052	22733.484
701.180	22666.086
701.308	22536.290
701.437	22469.129
701.565	22454.484
701.693	22345.462
701.821	22473.075
701.949	22210.634
702.077	22122.204
702.205	22137.022
702.333	21981.161
702.462	21887.054
702.590	21927.742
702.718	21716.882
702.846	21812.656
702.974	21537.022
703.102	21531.710
703.230	21436.871
703.358	21295.731
703.487	21205.355
703.615	21160.613
703.743	21066.495
703.871	21024.892
703.999	20899.151
704.127	20787.387
704.255	20735.161
704.383	20659.032
704.512	20672.355
704.640	20577.860
704.768	20553.871
704.896	20372.452
705.024	20281.011
705.152	20192.742
705.280	20144.065
705.408	20018.011
705.537	19889.806
705.665	19819.505
705.793	19771.849
705.921	19707.892
706.049	19598.129
706.177	19574.839
706.305	19435.796
706.433	19374.839
706.562	19317.247
706.690	19227.860
706.818	19134.355
706.946	19024.527
707.074	18961.280
707.202	18888.538
707.330	18759.946
707.458	18719.000
707.587	18625.796
707.715	18558.516
707.843	18515.065
707.971	18469.409
708.099	18343.409
708.227	18242.978
708.355	18180.581
708.483	18099.710
708.612	18031.452
708.740	17901.774
708.868	17904.484
708.996	17900.247
709.124	17786.043
709.252	17728.656
709.380	17628.161
709.508	17572.022
709.637	17527.785
709.765	17454.269
709.893	17410.645
710.021	17245.989
710.149	17336.753
710.277	17151.968
710.405	17061.237
710.533	16967.269
710.662	16925.591
710.790	17029.097
710.918	16823.505
711.046	16798.892
711.174	16717.258
711.302	16722.387
711.430	16604.312
711.558	16566.065
711.687	16474.247
711.815	16380.462
711.943	16326.839
712.071	16292.226
712.199	16253.495
712.327	16251.581
712.455	16079.796
712.583	16226.376
712.712	16024.968
712.840	15991.925
712.968	15906.785
713.096	15829.860
713.224	15760.742
713.352	15660.376
713.480	15607.882
713.608	15563.871
713.737	15461.151
713.865	15477.065
713.993	15363.559
714.121	15356.699
714.249	15250.022
714.377	15165.194
714.505	15131.763
714.633	15137.753
714.762	14996.387
714.890	14955.237
715.018	14890.828
715.146	14883.430
715.274	14772.860
715.402	14743.140
715.530	14664.710
715.658	14661.645
715.787	14629.140
715.915	14600.581
716.043	14473.204
716.171	14550.118
716.299	14317.215
716.427	14360.140
716.555	14230.860
716.683	14202.301
716.812	14136.376
716.940	14034.742
717.068	13961.806
717.196	14103.075
717.324	13960.978
717.452	13842.247
717.580	13876.548
717.708	13722.548
717.837	13686.183
717.965	13618.161
718.093	13541.280
718.221	13521.710
718.349	13542.903
718.477	13389.742
718.605	13447.000
718.733	13311.505
718.862	13307.656
718.990	13171.796
719.118	13173.032
719.246	13070.935
719.374	13006.043
719.502	12989.398
719.630	13032.742
719.758	12814.366
719.887	12796.688
720.015	12775.839
720.143	12720.763
720.271	12548.849
720.399	12626.484
720.527	12489.118
720.655	12515.237
720.783	12392.151
720.912	12309.796
721.040	12298.398
721.168	12264.527
721.296	12135.731
721.424	12103.258
721.552	12013.409
721.680	12027.548
721.808	11960.215
721.937	11890.774
722.065	11874.774
722.193	11793.817
722.321	11718.860
722.449	11711.591
722.577	11604.032
722.705	11526.086
722.833	11535.828
722.962	11457.989
723.090	11359.226
723.218	11320.581
723.346	11326.043
723.474	11225.376
723.602	11146.054
723.730	11076.656
723.858	11045.161
723.987	11036.828
724.115	10938.430
724.243	10963.484
724.371	10836.247
724.499	10795.215
724.627	10735.785
724.755	10674.387
724.883	10712.280
725.012	10760.645
725.140	10568.935
725.268	10459.376
725.396	10468.226
725.524	10523.656
725.652	10329.280
725.780	10378.419
725.908	10213.538
726.037	10164.903
726.165	10097.570
726.293	10025.430
726.421	9970.989
726.549	9981.602
726.677	9910.581
726.805	9820.753
726.933	9779.710
727.062	9737.989
727.190	9692.452
727.318	9610.441
727.446	9572.688
727.574	9479.828
727.702	9451.677
727.830	9467.774
727.958	9387.742
728.087	9426.978
728.215	9423.172
728.343	9270.871
728.471	9218.032
728.599	9312.903
728.727	9114.097
728.855	9073.387
728.983	9005.720
729.112	8987.065
729.240	8901.882
729.368	8888.366
729.496	8864.280
729.624	8821.247
729.752	8738.161
729.880	8688.581
730.008	8672.505
730.137	8606.011
730.265	8550.505
730.393	8670.871
730.521	8590.591
730.649	8381.527
730.777	8290.634
730.905	8307.495
731.033	8217.860
731.162	8317.903
731.290	8288.656
731.418	8162.763
731.546	8116.968
731.674	8069.473
731.802	8023.828
731.930	8090.591
732.058	8075.323
732.187	7909.753
732.315	7897.667
732.443	7946.667
732.571	7894.161
732.699	7838.000
732.827	7833.559
732.955	7734.505
733.083	7689.108
733.212	7684.247
733.340	7572.269
733.468	7577.000
733.596	7565.516
733.724	7487.355
733.852	7504.011
733.980	7469.903
734.108	7563.677
734.237	7388.022
734.365	7336.731
734.493	7298.462
734.621	7271.108
734.749	7215.957
734.877	7205.108
735.005	7197.097
735.133	7105.667
735.262	7206.376
735.390	7043.882
735.518	7014.527
735.646	7077.645
735.774	7013.710
735.902	7029.204
736.030	6897.731
736.158	6874.430
736.287	6850.344
736.415	6801.903
736.543	6765.957
736.671	6712.172
736.799	6733.011
736.927	6649.258
737.055	6786.086
737.183	6622.387
737.312	6574.462
737.440	6568.011
737.568	6615.204
737.696	6562.742
737.824	6454.645
737.952	6728.258
738.080	6395.677
738.208	6428.204
738.337	6386.849
738.465	6345.968
738.593	6310.570
738.721	6286.903
738.849	6300.129
738.977	6199.333
739.105	6178.011
739.233	6171.344
739.362	6104.882
739.490	6053.333
739.618	6110.022
739.746	6081.366
739.874	5994.710
740.002	5999.559
740.130	5964.065
740.258	5881.441
740.387	5922.914
740.515	5836.839
740.643	5849.882
740.771	5892.495
740.899	5766.817
741.027	5688.742
741.155	5673.581
741.283	5648.333
741.412	5778.129
741.540	5654.914
741.668	5591.419
741.796	5629.548
741.924	5521.151
742.052	5642.333
742.180	5493.645
742.308	5400.366
742.437	5446.527
742.565	5354.452
742.693	5471.215
742.821	5327.301
742.949	5286.355
743.077	5330.925
743.205	5208.591
743.333	5225.280
743.462	5197.688
743.590	5139.398
743.718	5152.075
743.846	5097.462
743.974	5140.720
744.102	5025.409
744.230	5048.871
744.358	4992.312
744.487	4968.323
744.615	4920.430
744.743	4903.430
744.871	4880.161
744.999	4937.172
745.127	4841.634
745.255	4774.172
745.383	4788.677
745.512	4736.215
745.640	4716.269
745.768	4701.129
745.896	4742.129
746.024	4673.516
746.152	4627.731
746.280	4658.269
746.408	4584.043
746.537	4630.151
746.665	4525.387
746.793	4513.817
746.921	4485.667
747.049	4479.774
747.177	4426.280
747.305	4607.591
747.433	4398.484
747.562	4330.978
747.690	4377.892
747.818	4399.376
747.946	4287.075
748.074	4280.269
748.202	4250.398
748.330	4214.677
748.458	4197.075
748.587	4140.022
748.715	4215.473
748.843	4085.785
748.971	4098.860
749.099	4100.882
749.227	4069.097
749.355	4093.237
749.483	4010.613
749.612	4039.333
749.740	3982.473
749.868	3969.151
749.996	3996.613
750.124	4007.688
750.252	3919.731
750.380	3906.011
750.508	3854.032
750.637	3814.817
750.765	3961.570
750.893	3788.753
751.021	3729.301
751.149	3769.419
751.277	3765.559
751.405	3712.548
751.533	3687.903
751.662	3618.699
751.790	3818.720
751.918	3623.312
752.046	3586.667
752.174	3627.086
752.302	3576.323
752.430	3527.043
752.558	3547.462
752.687	3473.183
752.815	3540.688
752.943	3436.817
753.071	3422.925
753.199	3402.957
753.327	3401.333
753.455	3328.118
753.583	3460.054
753.712	3376.957
753.840	3346.613
753.968	3335.462
754.096	3271.849
754.224	3290.108
754.352	3292.054
754.480	3258.194
754.608	3261.656
754.737	3230.677
754.865	3185.667
754.993	3262.419
755.121	3239.194
755.249	3313.957
755.377	3078.290
755.505	3162.097
755.633	3233.333
755.762	2999.925
755.890	3067.624
756.018	2998.581
756.146	2958.882
756.274	3011.301
756.402	2960.355
756.530	2904.516
756.658	2931.516
756.787	2902.548
756.915	2856.796
757.043	2823.022
757.171	2857.129
757.299	2990.516
757.427	2818.344
757.555	2851.903
757.683	2739.473
757.812	2776.828
757.940	2710.720
758.068	2687.441
758.196	2690.194
758.324	2755.968
758.452	2671.925
758.580	2658.591
758.708	2623.215
758.837	2748.624
758.965	2666.376
759.093	2673.419
759.221	2610.301
759.349	2604.473
759.477	2637.011
759.605	2605.957
759.733	2635.118
759.862	2558.140
759.990	2544.957
760.118	2569.075
760.246	2593.753
760.374	2537.914
760.502	2523.011
760.630	2520.462
760.758	2494.000
760.887	2500.086
761.015	2472.043
761.143	2479.946
761.271	2453.108
761.399	2438.731
761.527	2435.226
761.655	2426.097
761.783	2399.398
761.912	2375.452
762.040	2377.785
762.168	2343.806
762.296	2327.828
762.424	2316.140
762.552	2325.290
762.680	2299.183
762.808	2300.538
762.937	2276.118
763.065	2252.656
763.193	2238.849
763.321	2223.204
763.449	2195.892
763.577	2189.108
763.705	2199.086
763.833	2180.366
763.962	2167.548
764.090	2152.280
764.218	2131.323
764.346	2128.516
764.474	2121.613
764.602	2089.355
764.730	2092.290
764.858	2070.828
764.987	2074.968
765.115	2048.290
765.243	2034.548
765.371	2036.065
765.499	2029.075
765.627	2012.269
765.755	2008.699
765.883	1975.183
766.012	1971.688
766.140	1940.903
766.268	1934.215
766.396	1928.419
766.524	1935.839
766.652	1906.860
766.780	1908.753
766.908	1910.828
767.037	1895.871
767.165	1878.796
767.293	1865.237
767.421	1856.333
767.549	1822.849
767.677	1851.054
767.805	1821.935
767.933	1819.796
768.062	1805.215
768.190	1774.645
768.318	1791.301
768.446	1769.731
768.574	1751.903
768.702	1767.763
768.830	1761.204
768.958	1738.000
769.087	1728.538
769.215	1718.387
769.343	1725.602
769.471	1726.043
769.599	1698.258
769.727	1689.419
769.855	1675.065
769.983	1708.581
770.112	1660.527
770.240	1657.871
770.368	1630.237
770.496	1620.957
770.624	1634.086
770.752	1616.548
770.880	1628.108
771.008	1600.516
771.137	1598.720
771.265	1581.161
771.393	1570.742
771.521	1571.968
771.649	1581.849
771.777	1591.796
771.905	1611.226
772.033	1590.710
772.162	1531.710
772.290	1528.194
772.418	1537.882
772.546	1515.290
772.674	1502.903
772.802	1497.441
772.930	1491.806
773.058	1479.355
773.187	1477.097
773.315	1470.527
773.443	1475.613
773.571	1458.602
773.699	1459.204
773.827	1452.194
773.955	1455.527
774.083	1440.538
774.212	1428.011
774.340	1420.892
774.468	1419.290
774.596	1402.269
774.724	1407.882
774.852	1401.763
774.980	1390.871
775.108	1383.462
775.237	1359.344
775.365	1361.387
775.493	1366.215
775.621	1364.280
775.749	1349.215
775.877	1351.226
776.005	1341.344
776.133	1329.645
776.262	1323.667
776.390	1322.032
776.518	1305.806
776.646	1319.925
776.774	1308.183
776.902	1283.677
777.030	1285.237
777.158	1272.366
777.287	1294.710
777.415	1260.548
777.543	1259.796
777.671	1255.129
777.799	1253.645
777.927	1250.237
778.055	1254.548
778.183	1233.914
778.312	1236.355
778.440	1227.215
778.568	1240.344
778.696	1227.656
778.824	1223.086
778.952	1217.376
779.080	1200.871
779.208	1195.398
779.337	1199.860
779.465	1194.785
779.593	1188.269
779.721	1184.871
779.849	1180.226
779.977	1172.774
780.105	1162.667
780.233	1168.140
780.362	1149.634
780.490	1140.667
780.618	1145.731
780.746	1130.355
780.874	1138.108
781.002	1132.957
781.130	1126.462
781.258	1104.538
781.387	1106.710
781.515	1107.301
781.643	1096.968
781.771	1102.269
781.899	1109.742
782.027	1085.559
782.155	1085.258
782.283	1073.871
782.412	1075.871
782.540	1081.892
782.668	1067.871
782.796	1061.828
782.924	1067.344
783.052	1068.720
783.180	1042.763
783.308	1040.172
783.437	1033.398
783.565	1042.806
783.693	1038.108
783.821	1032.183
783.949	1026.419
784.077	1013.796
784.205	1022.731
784.333	1018.355
784.462	1001.763
784.590	1003.806
784.718	986.946
784.846	993.645
784.974	1007.548
785.102	988.022
785.230	976.032
785.358	969.645
785.487	973.602
785.615	965.538
785.743	963.043
785.871	969.065
785.999	959.968
786.127	953.505
786.255	945.559
786.383	944.505
786.512	948.602
786.640	925.763
786.768	927.258
786.896	926.409
787.024	916.667
787.152	912.570
787.280	932.355
787.408	906.828
787.537	916.882
787.665	910.613
787.793	903.634
787.921	899.194
788.049	889.957
788.177	879.312
788.305	883.968
788.433	882.269
788.562	877.839
788.690	871.269
788.818	873.581
788.946	865.796
789.074	856.086
789.202	858.140
789.330	846.720
789.458	861.204
789.587	836.699
789.715	846.194
789.843	845.914
789.971	841.054
790.099	827.516
790.227	825.634
790.355	829.398
790.483	823.376
790.612	827.118
790.740	822.022
790.868	813.108
790.996	822.538
791.124	823.688
791.252	818.194
791.380	801.065
791.508	801.505
791.637	801.699
791.765	782.226
791.893	795.344
792.021	789.892
792.149	780.634
792.277	793.215
792.405	766.247
792.533	785.892
792.662	767.032
792.790	766.065
792.918	780.086
793.046	754.054
793.174	763.892
793.302	758.075
793.430	752.624
793.558	752.409
793.687	742.484
793.815	745.892
793.943	753.871
794.071	735.882
794.199	736.968
794.327	727.785
794.455	737.968
794.583	740.613
794.712	725.333
794.840	725.914
794.968	714.151
795.096	728.667
795.224	693.473
795.352	760.763
795.480	697.226
795.608	699.989
795.737	692.957
795.865	691.075
795.993	701.366
796.121	684.290
796.249	683.355
796.377	682.280
796.505	679.151
796.633	684.860
796.762	666.194
796.890	667.043
797.018	676.000
797.146	673.817
797.274	667.301
797.402	657.097
797.530	652.978
797.658	650.667
797.787	665.151
797.915	658.602
798.043	640.570
798.171	647.624
798.299	635.419
798.427	640.258
798.555	653.935
798.683	638.602
798.812	663.419
798.940	673.495
799.068	660.591
799.196	632.849
799.324	629.871
799.452	612.194
799.580	613.914
799.708	611.559
799.837	620.376
799.965	602.538
800.093	600.054
800.221	602.720
800.349	601.634
800.477	595.430
800.605	589.989
800.733	580.796
800.862	590.409
800.990	586.172
801.118	585.624
801.246	586.086
801.374	591.409
801.502	577.677
801.630	579.688
801.758	572.495
801.887	571.527
802.015	566.882
802.143	555.215
802.271	567.989
802.399	558.634
802.527	547.323
802.655	554.667
802.783	552.731
802.912	547.882
803.040	548.097
803.168	544.065
803.296	555.968
803.424	542.903
803.552	544.022
803.680	545.301
803.808	533.183
803.937	527.032
804.065	536.688
804.193	536.355
804.321	538.398
804.449	543.333
804.577	530.462
804.705	542.462
804.833	515.559
804.962	520.151
805.090	527.978
805.218	510.548
805.346	506.355
805.474	518.462
805.602	512.269
805.730	523.903
805.858	501.538
805.987	498.763
806.115	502.946
806.243	512.957
806.371	500.688
806.499	497.731
806.627	487.957
806.755	498.333
806.883	500.677
807.012	479.387
807.140	491.839
807.268	479.344
807.396	484.548
807.524	480.108
807.652	487.731
807.780	476.892
807.908	482.215
808.037	496.387
808.165	481.602
808.293	470.785
808.421	464.462
808.549	464.849
808.677	465.398
808.805	480.538
808.933	465.161
809.062	462.054
809.190	475.086
809.318	469.462
809.446	456.559
809.574	463.645
809.702	459.581
809.830	449.323
809.958	460.667
810.087	460.570
810.215	452.645
810.343	447.957
810.471	449.806
810.599	439.699
810.727	457.817
810.855	437.323
810.983	450.957
811.112	440.484
811.240	445.312
811.368	435.333
811.496	441.409
811.624	438.817
811.752	434.720
811.880	448.409
812.008	437.645
812.137	450.656
812.265	435.151
812.393	437.043
812.521	423.065
812.649	425.151
812.777	421.763
812.905	422.247
813.033	425.086
813.162	423.656
813.290	412.226
813.418	419.108
813.546	414.763
813.674	413.011
813.802	406.097
813.930	410.387
814.058	411.387
814.187	411.226
814.315	410.247
814.443	407.140
814.571	405.753
814.699	396.108
814.827	404.333
814.955	406.312
815.083	396.097
815.212	399.957
815.340	397.258
815.468	404.871
815.596	388.215
815.724	392.301
815.852	395.538
815.980	395.075
816.108	390.860
816.237	395.043
816.365	403.753
816.493	390.634
816.621	405.462
816.749	381.688
816.877	453.140
817.005	397.839
817.133	390.097
817.262	383.645
817.390	374.935
817.518	393.011
817.646	377.161
817.774	368.817
817.902	364.849
818.030	372.118
818.158	369.538
818.287	369.140
818.415	367.624
818.543	364.839
818.671	364.817
818.799	363.172
818.927	362.000
819.055	384.634
819.183	365.634
819.312	383.086
819.440	363.699
819.568	356.075
819.696	357.989
819.824	364.247
819.952	358.548
820.080	360.602
820.208	356.935
820.337	360.570
820.465	360.570
820.593	352.301
820.721	351.753
820.849	346.860
820.977	354.323
821.105	351.602
821.233	340.312
821.362	350.409
821.490	338.204
821.618	348.860
821.746	351.828
821.874	340.946
822.002	329.699
822.130	342.624
822.258	341.333
822.387	339.366
822.515	343.656
822.643	337.806
822.771	336.194
822.899	346.581
823.027	324.925
823.155	337.097
823.283	343.763
823.412	348.817
823.540	333.806
823.668	330.398
823.796	328.344
823.924	330.935
824.052	326.667
824.180	336.753
824.308	327.065
824.437	343.409
824.565	332.043
824.693	321.301
824.821	316.333
824.949	328.183
825.077	321.226
825.205	317.011
825.333	319.495
825.462	320.387
825.590	315.753
825.718	312.527
825.846	323.054
825.974	322.935
826.102	319.968
826.230	322.387
826.358	323.441
826.487	320.602
826.615	312.140
826.743	308.430
826.871	321.269
826.999	312.538
827.127	315.280
827.255	312.624
827.383	309.581
827.512	305.355
827.640	312.624
827.768	334.269
827.896	299.871
828.024	309.602
828.152	304.312
828.280	303.043
828.408	299.538
828.537	308.806
828.665	300.742
828.793	302.667
828.921	299.774
829.049	298.151
829.177	300.215
829.305	301.301
829.433	300.409
829.562	298.710
829.690	303.355
829.818	303.559
829.946	297.581
830.074	298.065
830.202	294.118
830.330	290.710
830.458	287.462
830.587	299.495
830.715	287.054
830.843	286.430
830.971	294.796
831.099	297.591
831.227	316.774
831.355	291.570
831.483	288.720
831.612	289.237
831.740	289.183
831.868	292.656
831.996	295.215
832.124	283.978
832.252	297.677
832.380	281.280
832.508	281.817
832.637	282.419
832.765	291.441
832.893	285.280
833.021	285.720
833.149	276.925
833.277	282.366
833.405	286.280
833.533	275.742
833.662	284.505
833.790	279.860
833.918	282.849
834.046	281.559
834.174	277.667
834.302	283.301
834.430	270.237
834.558	276.602
834.687	283.043
834.815	279.548
834.943	273.065
835.071	275.774
835.199	278.667
835.327	273.935
835.455	285.473
835.583	272.054
835.712	267.108
835.840	274.172
835.968	271.925
836.096	277.495
836.224	267.731
836.352	270.527
836.480	268.548
836.608	267.645
836.737	273.763
836.865	266.043
836.993	275.699
837.121	282.903
837.249	267.151
837.377	262.108
837.505	257.398
837.633	266.247
837.762	271.452
837.890	264.473
838.018	268.774
838.146	260.516
838.274	261.763
838.402	258.860
838.530	283.366
838.658	264.086
838.787	268.140
838.915	254.656
839.043	273.968
839.171	258.065
839.299	263.344
839.427	280.301
839.555	268.839
839.683	254.333
839.812	260.763
839.940	256.129
840.068	261.097
840.196	286.731
840.324	267.903
840.452	260.161
840.580	259.710
840.708	251.785
840.837	254.957
840.965	253.935
841.093	248.022
841.221	256.957
841.349	251.860
841.477	252.419
841.605	253.000
841.733	255.731
841.862	259.022
841.990	253.667
842.118	248.226
842.246	251.355
842.374	243.957
842.502	263.269
842.630	252.366
842.758	246.871
842.887	255.172
843.015	262.333
843.143	244.430
843.271	250.333
843.399	250.978
843.527	256.194
843.655	243.796
843.783	249.108
843.912	245.753
844.040	242.054
844.168	250.323
844.296	262.548
844.424	248.430
844.552	253.376
844.680	249.989
844.808	242.753
844.937	244.495
845.065	239.624
845.193	262.022
845.321	245.731
845.449	247.118
845.577	245.839
845.705	243.043
845.833	243.075
845.962	256.634
846.090	243.000
846.218	249.118
846.346	249.806
846.474	245.290
846.602	238.828
846.730	247.086
846.858	239.946
846.987	237.323
847.115	248.118
847.243	246.065
847.371	233.183
847.499	234.011
847.627	239.688
847.755	239.473
847.883	247.161
848.012	247.860
848.140	228.505
848.268	235.559
848.396	236.204
848.524	237.806
848.652	233.935
848.780	233.720
848.908	242.882
849.037	244.247
849.165	232.215
849.293	238.849
849.421	238.688
849.549	238.247
849.677	235.441
849.805	242.237
849.933	235.667
850.062	240.258
850.190	234.237
850.318	232.495
850.446	239.140
850.574	240.333
850.702	226.226
850.830	231.280
850.958	232.301
851.087	238.731
851.215	230.419
851.343	232.247
851.471	233.968
851.599	238.258
851.727	237.667
851.855	235.280
851.983	237.387
852.112	232.151
852.240	239.226
852.368	243.731
852.496	226.043
852.624	236.301
852.752	239.194
852.880	237.172
853.008	221.247
853.137	226.656
853.265	231.968
853.393	231.097
853.521	221.204
853.649	231.849
853.777	230.269
853.905	228.473
854.033	231.656
854.162	219.978
854.290	228.473
854.418	250.720
854.546	262.462
854.674	243.505
854.802	227.731
854.930	223.237
855.058	233.097
855.187	228.237
855.315	242.527
855.443	224.774
855.571	223.118
855.699	237.086
855.827	220.269
855.955	223.054
856.083	227.645
856.212	226.516
856.340	224.731
856.468	226.430
856.596	220.559
856.724	226.645
856.852	242.624
856.980	221.140
857.108	220.226
857.237	212.183
857.365	229.624
857.493	228.806
857.621	221.366
857.749	217.204
857.877	214.312
858.005	217.828
858.133	224.559
858.262	217.591
858.390	218.409
858.518	218.430
858.646	223.140
858.774	215.194
858.902	213.720
859.030	219.022
859.158	222.538
859.287	218.785
859.415	221.860
859.543	215.667
859.671	221.129
859.799	225.065
859.927	219.978
860.055	218.151
860.183	214.118
860.312	213.677
860.440	217.043
860.568	210.484
860.696	226.978
860.824	230.839
860.952	209.871
861.080	221.118
861.208	219.634
861.337	219.366
861.465	226.323
861.593	217.226
861.721	219.570
861.849	219.355
861.977	212.753
862.105	217.043
862.233	217.075
862.362	217.634
862.490	210.344
862.618	215.624
862.746	212.946
862.874	221.871
863.002	223.000
863.130	222.118
863.258	219.699
863.387	220.903
863.515	219.581
863.643	222.387
863.771	217.839
863.899	213.527
864.027	221.667
864.155	241.484
864.283	216.280
864.412	212.742
864.540	216.548
864.668	213.548
864.796	212.624
864.924	212.247
865.052	204.774
865.180	224.946
865.308	219.430
865.437	216.355
865.565	208.774
865.693	207.774
865.821	210.774
865.949	229.505
866.077	215.828
866.205	215.538
866.333	218.806
866.462	204.753
866.590	214.903
866.718	215.624
866.846	205.075
866.974	219.462
867.102	209.161
867.230	216.774
867.358	211.430
867.487	220.323
867.615	225.591
867.743	210.581
867.871	225.559
867.999	212.860
868.127	222.849
868.255	228.602
868.383	201.710
868.512	213.860
868.640	209.570
868.768	213.194
868.896	219.753
869.024	207.667
869.152	207.849
869.280	205.387
869.408	210.129
869.537	208.366
869.665	203.860
869.793	213.785
869.921	210.430
870.049	196.538
870.177	210.860
870.305	205.656
870.433	212.366
870.562	211.129
870.690	206.108
870.818	217.366
870.946	207.731
871.074	198.742
871.202	214.710
871.330	202.011
871.458	209.032
871.587	208.022
871.715	210.946
871.843	214.366
871.971	215.204
872.099	199.140
872.227	208.892
872.355	203.323
872.483	198.860
872.612	212.075
872.740	208.237
872.868	205.043
872.996	212.215
873.124	218.333
873.252	206.667
873.380	199.419
873.508	215.656
873.637	215.355
873.765	201.398
873.893	209.215
874.021	206.129
874.149	202.495
874.277	204.527
874.405	215.409
874.533	215.097
874.662	200.419
874.790	212.366
874.918	204.097
875.046	202.538
875.174	207.129
875.302	204.570
875.430	201.946
875.558	209.570
875.687	207.290
875.815	208.204
875.943	210.215
876.071	204.462
876.199	209.505
876.327	203.774
876.455	205.516
876.583	199.204
876.712	216.086
876.840	207.903
876.968	203.677
877.096	207.409
877.224	202.774
877.352	198.548
877.480	203.634
877.608	217.387
877.737	209.785
877.865	203.978
877.993	207.323
878.121	209.065
878.249	208.645
878.377	199.398
878.505	207.645
878.633	204.344
878.762	195.269
878.890	201.419
879.018	211.409
879.146	204.624
879.274	232.849
879.402	207.376
879.530	204.559
879.658	205.108
879.787	208.290
879.915	202.677
880.043	196.441
880.171	237.366
880.299	205.387
880.427	207.204
880.555	197.172
880.683	209.258
880.812	203.462
880.940	199.505
881.068	207.570
881.196	203.774
881.324	198.215
881.452	201.538
881.580	206.946
881.708	194.989
881.837	205.720
881.965	205.204
882.093	195.409
882.221	199.871
882.349	198.484
882.477	200.333
882.605	205.505
882.733	212.280
882.862	202.495
882.990	210.505
883.118	210.860
883.246	212.462
883.374	201.484
883.502	213.333
883.630	214.118
883.758	200.849
883.887	207.172
884.015	208.000
884.143	207.054
884.271	204.419
884.399	196.602
884.527	208.720
884.655	204.785
884.783	205.774
884.912	230.613
885.040	206.946
885.168	199.968
885.296	214.269
885.424	199.258
885.552	199.785
885.680	219.032
885.808	209.570
885.937	211.968
886.065	208.097
886.193	203.978
886.321	202.409
886.449	204.968
886.577	200.613
886.705	217.785
886.833	196.032
886.962	203.839
887.090	200.581
887.218	204.613
887.346	200.473
887.474	200.806
887.602	198.495
887.730	195.452
887.858	198.366
887.987	197.667
888.115	204.172
888.243	195.151
888.371	208.892
888.499	202.452
888.627	201.075
888.755	210.946
888.883	206.473
889.012	201.570
889.140	200.849
889.268	208.753
889.396	192.258
889.524	204.989
889.652	194.441
889.780	198.656
889.908	204.355
890.037	209.484
890.165	197.226
890.293	210.054
890.421	199.656
890.549	193.226
890.677	195.968
890.805	201.677
890.933	195.849
891.062	197.011
891.190	202.387
891.318	198.516
891.446	200.086
891.574	192.914
891.702	192.495
891.830	191.548
891.958	209.484
892.087	204.677
892.215	202.699
892.343	201.968
892.471	205.194
892.599	196.043
892.727	205.849
892.855	218.839
892.983	191.161
893.112	194.484
893.240	208.634
893.368	197.247
893.496	212.602
893.624	198.108
893.752	220.731
893.880	193.656
894.008	200.215
894.137	197.849
894.265	205.075
894.393	196.183
894.521	202.290
894.649	202.763
894.777	190.376
894.905	240.710
895.033	190.645
895.162	197.204
895.290	210.785
895.418	202.065
895.546	235.333
895.674	204.075
895.802	240.000
895.930	201.839
896.058	198.075
896.187	192.968
896.315	195.548
896.443	209.215
896.571	224.462
896.699	196.978
896.827	194.312
896.955	198.043
897.083	200.344
897.212	195.882
897.340	199.710
897.468	197.968
897.596	197.968
897.724	194.312
897.852	193.430
897.980	186.699
898.108	206.290
898.237	197.581
898.365	192.140
898.493	199.527
898.621	197.247
898.749	196.473
898.877	189.581
899.005	197.419
899.133	199.269
899.262	212.161
899.390	198.430
899.518	197.871
899.646	191.710
899.774	190.043
899.902	194.914
900.030	206.989
900.158	191.495
900.287	197.957
900.415	189.290
900.543	197.613
900.671	205.774
900.799	192.731
900.927	195.688
901.055	208.452
901.183	206.828
901.312	207.634
901.440	189.527
901.568	194.183
901.696	192.505
901.824	190.645
901.952	189.591
902.080	197.075
902.208	200.183
902.337	202.720
902.465	192.290
902.593	207.699
902.721	218.032
902.849	211.763
902.977	193.849
903.105	198.430
903.233	189.376
903.362	184.527
903.490	198.892
903.618	194.516
903.746	187.430
903.874	193.215
904.002	185.419
904.130	206.903
904.258	183.892
904.387	200.839
904.515	186.323
904.643	198.753
904.771	193.677
904.899	188.161
905.027	197.581
905.155	189.419
905.283	186.097
905.412	201.333
905.540	190.828
905.668	193.118
905.796	193.151
905.924	191.860
906.052	190.645
906.180	197.570
906.308	189.258
906.437	191.516
906.565	196.086
906.693	201.172
906.821	186.559
906.949	187.204
907.077	184.086
907.205	196.484
907.333	182.871
907.462	185.849
907.590	187.602
907.718	189.215
907.846	197.796
907.974	185.935
908.102	192.387
908.230	191.796
908.358	189.645
908.487	186.892
908.615	199.677
908.743	200.763
908.871	191.022
908.999	186.796
909.127	182.226
909.255	203.742
909.383	192.086
909.512	180.742
909.640	207.151
909.768	189.398
909.896	195.871
910.024	196.151
910.152	197.753
910.280	199.516
910.408	183.796
910.537	185.548
910.665	196.667
910.793	195.548
910.921	191.323
911.049	200.925
911.177	199.108
911.305	187.419
911.433	187.839
911.562	197.634
911.690	193.828
911.818	190.656
911.946	189.226
912.074	198.323
912.202	189.849
912.330	208.667
912.458	185.527
912.587	191.699
912.715	194.839
912.843	204.054
912.971	196.043
913.099	209.301
913.227	201.430
913.355	202.763
913.483	207.645
913.612	200.774
913.740	215.237
913.868	199.645
