sample11h_at_750.00nm_cut_at_1060.50Y_01.dat
19.06.2023
11:17:07
cut middle at Y: 1060.50
top cursor: 1109 down cursor: 1012 mean of: 97 lines , 2560 datapoints
wavelength(nm)	intensity[arb. units]
585.996	786.412
586.124	768.773
586.252	765.649
586.380	763.144
586.508	774.103
586.637	771.887
586.765	769.505
586.893	771.433
587.021	773.567
587.149	780.216
587.277	780.948
587.405	784.495
587.533	774.546
587.662	786.691
587.790	785.278
587.918	782.629
588.046	779.701
588.174	782.412
588.302	781.536
588.430	785.196
588.558	790.124
588.687	793.680
588.815	799.897
588.943	798.588
589.071	793.309
589.199	796.227
589.327	793.144
589.455	792.887
589.583	797.309
589.712	807.258
589.840	789.907
589.968	804.258
590.096	803.567
590.224	803.670
590.352	809.309
590.480	810.072
590.608	815.237
590.737	807.155
590.865	812.711
590.993	812.237
591.121	807.062
591.249	807.340
591.377	818.670
591.505	814.526
591.633	813.268
591.762	825.701
591.890	827.402
592.018	823.144
592.146	825.155
592.274	826.062
592.402	826.660
592.530	832.082
592.658	827.443
592.787	823.361
592.915	826.381
593.043	825.021
593.171	832.608
593.299	840.371
593.427	834.835
593.555	836.423
593.683	832.227
593.812	832.289
593.940	850.299
594.068	839.938
594.196	847.103
594.324	838.990
594.452	851.897
594.580	852.763
594.708	852.814
594.837	852.299
594.965	857.402
595.093	848.701
595.221	856.979
595.349	855.227
595.477	857.567
595.605	858.412
595.733	870.588
595.862	872.814
595.990	861.660
596.118	865.381
596.246	870.113
596.374	880.701
596.502	874.598
596.630	874.907
596.758	879.629
596.887	878.866
597.015	877.464
597.143	870.897
597.271	875.670
597.399	889.381
597.527	878.289
597.655	888.732
597.783	885.144
597.912	887.340
598.040	891.299
598.168	890.433
598.296	887.670
598.424	887.773
598.552	885.103
598.680	891.340
598.808	892.691
598.937	897.711
599.065	897.629
599.193	899.443
599.321	880.423
599.449	910.021
599.577	899.969
599.705	892.206
599.833	899.918
599.962	891.608
600.090	903.340
600.218	893.701
600.346	905.918
600.474	904.546
600.602	903.340
600.730	901.814
600.858	905.392
600.987	909.536
601.115	900.742
601.243	904.732
601.371	913.763
601.499	913.753
601.627	911.938
601.755	924.021
601.883	930.969
602.012	927.959
602.140	925.557
602.268	931.041
602.396	923.979
602.524	925.082
602.652	937.340
602.780	931.732
602.908	930.753
603.037	937.299
603.165	941.546
603.293	939.041
603.421	952.485
603.549	939.928
603.677	959.515
603.805	950.381
603.933	959.268
604.062	966.423
604.190	964.320
604.318	965.907
604.446	977.216
604.574	970.196
604.702	970.021
604.830	979.031
604.958	980.959
605.087	985.402
605.215	1000.289
605.343	991.474
605.471	1002.268
605.599	984.381
605.727	1005.588
605.855	996.062
605.983	1004.402
606.112	1007.258
606.240	1013.206
606.368	1012.216
606.496	1012.670
606.624	1007.227
606.752	1008.670
606.880	1009.237
607.008	1022.072
607.137	1013.124
607.265	1021.680
607.393	1030.278
607.521	1025.536
607.649	1016.763
607.777	1028.278
607.905	1029.515
608.033	1027.959
608.162	1025.000
608.290	1032.010
608.418	1037.196
608.546	1028.464
608.674	1039.845
608.802	1041.186
608.930	1042.536
609.058	1038.155
609.187	1028.567
609.315	1032.206
609.443	1034.784
609.571	1033.526
609.699	1039.948
609.827	1041.670
609.955	1036.454
610.083	1037.918
610.212	1050.990
610.340	1044.577
610.468	1043.144
610.596	1042.299
610.724	1037.732
610.852	1041.227
610.980	1046.711
611.108	1046.196
611.237	1041.546
611.365	1053.289
611.493	1048.742
611.621	1052.062
611.749	1058.773
611.877	1060.103
612.005	1065.464
612.133	1061.351
612.262	1068.258
612.390	1069.619
612.518	1066.423
612.646	1073.732
612.774	1078.330
612.902	1081.361
613.030	1081.887
613.158	1079.227
613.287	1088.546
613.415	1096.052
613.543	1092.082
613.671	1086.938
613.799	1104.454
613.927	1091.835
614.055	1099.062
614.183	1104.268
614.312	1106.619
614.440	1101.794
614.568	1117.433
614.696	1116.567
614.824	1126.763
614.952	1113.629
615.080	1124.443
615.208	1125.814
615.337	1122.165
615.465	1136.856
615.593	1128.835
615.721	1142.423
615.849	1150.155
615.977	1140.691
616.105	1143.835
616.233	1142.588
616.362	1155.598
616.490	1152.742
616.618	1157.907
616.746	1147.856
616.874	1153.680
617.002	1167.165
617.130	1157.546
617.258	1165.505
617.387	1166.433
617.515	1166.299
617.643	1168.423
617.771	1171.557
617.899	1178.546
618.027	1162.938
618.155	1180.031
618.283	1175.320
618.412	1181.371
618.540	1188.155
618.668	1187.845
618.796	1188.526
618.924	1190.082
619.052	1188.454
619.180	1192.134
619.308	1195.330
619.437	1192.629
619.565	1203.227
619.693	1201.237
619.821	1206.598
619.949	1215.402
620.077	1205.268
620.205	1209.093
620.333	1210.825
620.462	1224.701
620.590	1227.351
620.718	1224.381
620.846	1224.670
620.974	1225.041
621.102	1234.320
621.230	1232.969
621.358	1239.711
621.487	1236.938
621.615	1235.979
621.743	1240.577
621.871	1249.299
621.999	1230.557
622.127	1239.103
622.255	1242.423
622.383	1256.062
622.512	1244.072
622.640	1255.928
622.768	1257.495
622.896	1258.010
623.024	1254.856
623.152	1286.041
623.280	1258.340
623.408	1267.794
623.537	1273.804
623.665	1274.423
623.793	1275.546
623.921	1273.072
624.049	1274.309
624.177	1287.619
624.305	1286.567
624.433	1290.155
624.562	1278.608
624.690	1282.278
624.818	1284.258
624.946	1294.763
625.074	1295.392
625.202	1299.887
625.330	1292.804
625.458	1305.433
625.587	1290.804
625.715	1290.979
625.843	1307.567
625.971	1303.423
626.099	1308.371
626.227	1319.381
626.355	1306.505
626.483	1329.588
626.612	1322.330
626.740	1321.113
626.868	1321.186
626.996	1310.113
627.124	1322.577
627.252	1323.454
627.380	1328.608
627.508	1332.887
627.637	1337.010
627.765	1340.526
627.893	1346.619
628.021	1327.258
628.149	1353.371
628.277	1352.928
628.405	1352.732
628.533	1344.670
628.662	1350.340
628.790	1354.907
628.918	1351.557
629.046	1362.876
629.174	1368.072
629.302	1367.598
629.430	1374.567
629.558	1375.742
629.687	1375.093
629.815	1379.237
629.943	1385.732
630.071	1392.557
630.199	1387.196
630.327	1392.701
630.455	1396.062
630.583	1408.082
630.712	1417.062
630.840	1408.856
630.968	1421.124
631.096	1419.227
631.224	1412.206
631.352	1426.577
631.480	1427.753
631.608	1431.144
631.737	1435.691
631.865	1452.206
631.993	1439.454
632.121	1445.423
632.249	1445.371
632.377	1464.082
632.505	1446.010
632.633	1455.423
632.762	1459.948
632.890	1468.237
633.018	1483.392
633.146	1459.691
633.274	1480.093
633.402	1463.175
633.530	1474.072
633.658	1481.351
633.787	1471.010
633.915	1479.206
634.043	1483.371
634.171	1483.206
634.299	1488.629
634.427	1490.557
634.555	1499.918
634.683	1500.402
634.812	1486.856
634.940	1497.299
635.068	1503.948
635.196	1515.814
635.324	1513.629
635.452	1518.175
635.580	1518.629
635.708	1511.340
635.837	1520.330
635.965	1516.546
636.093	1523.155
636.221	1509.072
636.349	1520.784
636.477	1522.247
636.605	1514.918
636.733	1519.546
636.862	1519.247
636.990	1522.588
637.118	1530.505
637.246	1528.206
637.374	1529.103
637.502	1522.299
637.630	1531.278
637.758	1525.052
637.887	1524.186
638.015	1533.732
638.143	1549.443
638.271	1546.072
638.399	1541.340
638.527	1528.412
638.655	1556.258
638.783	1546.680
638.912	1557.144
639.040	1537.742
639.168	1547.608
639.296	1544.804
639.424	1565.443
639.552	1560.381
639.680	1557.155
639.808	1564.629
639.937	1555.134
640.065	1562.732
640.193	1583.732
640.321	1575.959
640.449	1576.969
640.577	1585.619
640.705	1586.649
640.833	1589.010
640.962	1592.670
641.090	1588.959
641.218	1610.113
641.346	1595.175
641.474	1601.124
641.602	1590.031
641.730	1624.433
641.858	1624.711
641.987	1613.670
642.115	1629.010
642.243	1631.505
642.371	1649.113
642.499	1633.557
642.627	1649.773
642.755	1649.340
642.883	1662.680
643.012	1659.144
643.140	1652.289
643.268	1671.144
643.396	1675.381
643.524	1675.155
643.652	1676.691
643.780	1673.258
643.908	1683.103
644.037	1692.134
644.165	1683.299
644.293	1698.340
644.421	1706.711
644.549	1699.113
644.677	1726.505
644.805	1729.536
644.933	1708.763
645.062	1715.619
645.190	1721.639
645.318	1715.546
645.446	1737.763
645.574	1742.309
645.702	1742.186
645.830	1749.010
645.958	1754.649
646.087	1743.598
646.215	1755.711
646.343	1768.526
646.471	1770.546
646.599	1761.227
646.727	1771.062
646.855	1767.134
646.983	1772.021
647.112	1780.196
647.240	1789.351
647.368	1766.845
647.496	1790.124
647.624	1788.186
647.752	1787.031
647.880	1802.186
648.008	1793.639
648.137	1782.371
648.265	1790.680
648.393	1808.670
648.521	1813.175
648.649	1810.412
648.777	1801.351
648.905	1797.113
649.033	1783.155
649.162	1797.887
649.290	1797.753
649.418	1795.897
649.546	1807.485
649.674	1822.753
649.802	1822.186
649.930	1801.763
650.058	1805.134
650.187	1819.526
650.315	1822.144
650.443	1817.969
650.571	1817.639
650.699	1822.361
650.827	1838.608
650.955	1820.361
651.083	1835.186
651.212	1830.227
651.340	1835.371
651.468	1848.423
651.596	1844.608
651.724	1853.165
651.852	1835.289
651.980	1842.144
652.108	1855.155
652.237	1846.495
652.365	1844.990
652.493	1842.340
652.621	1841.526
652.749	1849.371
652.877	1854.753
653.005	1851.701
653.133	1865.237
653.262	1868.866
653.390	1854.103
653.518	1870.742
653.646	1863.639
653.774	1870.948
653.902	1887.134
654.030	1889.082
654.158	1868.227
654.287	1878.722
654.415	1880.536
654.543	1871.093
654.671	1878.340
654.799	1864.361
654.927	1877.041
655.055	1880.546
655.183	1881.794
655.312	1872.072
655.440	1881.258
655.568	1890.763
655.696	1894.990
655.824	1900.247
655.952	1898.031
656.080	1883.495
656.208	1910.495
656.337	1900.392
656.465	1911.412
656.593	1901.515
656.721	1911.588
656.849	1928.557
656.977	1907.680
657.105	1916.649
657.233	1910.701
657.362	1909.887
657.490	1917.474
657.618	1917.485
657.746	1917.299
657.874	1914.577
658.002	1924.753
658.130	1915.289
658.258	1925.000
658.387	1934.588
658.515	1916.134
658.643	1918.619
658.771	1923.464
658.899	1911.351
659.027	1937.299
659.155	1921.412
659.283	1913.515
659.412	1918.856
659.540	1934.340
659.668	1937.557
659.796	1931.062
659.924	1936.876
660.052	1941.031
660.180	1929.608
660.308	1940.144
660.437	1928.000
660.565	1944.928
660.693	1933.825
660.821	1945.546
660.949	1955.629
661.077	1939.216
661.205	1940.866
661.333	1936.691
661.462	1969.392
661.590	1971.495
661.718	1955.402
661.846	1960.464
661.974	1958.216
662.102	1965.825
662.230	1962.392
662.358	1944.835
662.487	1953.567
662.615	1944.856
662.743	1966.732
662.871	1969.732
662.999	1972.979
663.127	1968.969
663.255	1960.969
663.383	1973.206
663.512	1982.371
663.640	1972.546
663.768	1971.237
663.896	1982.577
664.024	1968.186
664.152	1980.505
664.280	1982.794
664.408	1969.990
664.537	1983.835
664.665	1975.804
664.793	1974.289
664.921	1969.010
665.049	1988.691
665.177	2000.887
665.305	1979.763
665.433	1986.536
665.562	1986.258
665.690	2000.031
665.818	1997.072
665.946	1999.505
666.074	2006.093
666.202	1991.670
666.330	1990.093
666.458	1993.062
666.587	1988.320
666.715	1994.103
666.843	2008.340
666.971	1986.052
667.099	2009.763
667.227	2025.351
667.355	2001.309
667.483	2000.320
667.612	2013.515
667.740	1995.113
667.868	2007.392
667.996	1999.742
668.124	2007.144
668.252	2005.299
668.380	2003.144
668.508	2019.340
668.637	2005.196
668.765	2012.268
668.893	1998.876
669.021	2018.052
669.149	1982.897
669.277	1997.835
669.405	1991.402
669.533	2005.763
669.662	2013.670
669.790	1983.814
669.918	2007.928
670.046	1995.938
670.174	2005.268
670.302	1987.577
670.430	1987.443
670.558	1976.216
670.687	1982.505
670.815	1972.680
670.943	1979.041
671.071	1971.474
671.199	1982.722
671.327	1979.722
671.455	1972.237
671.583	1981.299
671.712	1962.557
671.840	1973.278
671.968	1959.866
672.096	1955.969
672.224	1956.021
672.352	1959.825
672.480	1950.206
672.608	1950.113
672.737	1946.165
672.865	1939.443
672.993	1929.557
673.121	1943.000
673.249	1939.979
673.377	1926.144
673.505	1934.433
673.633	1904.546
673.762	1904.505
673.890	1917.010
674.018	1908.021
674.146	1895.505
674.274	1901.247
674.402	1888.938
674.530	1893.763
674.658	1901.258
674.787	1875.237
674.915	1884.598
675.043	1871.124
675.171	1862.629
675.299	1873.165
675.427	1858.464
675.555	1855.918
675.683	1850.567
675.812	1844.763
675.940	1821.546
676.068	1842.835
676.196	1833.134
676.324	1832.887
676.452	1831.247
676.580	1826.381
676.708	1820.773
676.837	1831.907
676.965	1821.289
677.093	1819.165
677.221	1812.454
677.349	1795.742
677.477	1815.670
677.605	1791.835
677.733	1800.856
677.862	1793.948
677.990	1791.990
678.118	1783.216
678.246	1766.794
678.374	1771.845
678.502	1773.144
678.630	1756.546
678.758	1763.866
678.887	1758.052
679.015	1774.474
679.143	1751.969
679.271	1745.990
679.399	1748.093
679.527	1747.309
679.655	1735.206
679.783	1737.546
679.912	1717.546
680.040	1734.887
680.168	1734.392
680.296	1711.557
680.424	1725.814
680.552	1707.041
680.680	1712.268
680.808	1703.701
680.937	1701.505
681.065	1703.825
681.193	1695.660
681.321	1702.588
681.449	1705.134
681.577	1694.268
681.705	1666.412
681.833	1682.536
681.962	1680.546
682.090	1685.773
682.218	1685.835
682.346	1675.299
682.474	1676.588
682.602	1676.804
682.730	1660.619
682.858	1654.742
682.987	1670.299
683.115	1650.825
683.243	1641.289
683.371	1644.237
683.499	1645.536
683.627	1652.103
683.755	1634.722
683.883	1641.093
684.012	1637.485
684.140	1625.660
684.268	1623.577
684.396	1630.124
684.524	1622.113
684.652	1639.206
684.780	1626.340
684.908	1625.052
685.037	1613.381
685.165	1617.588
685.293	1608.928
685.421	1608.722
685.549	1593.505
685.677	1611.835
685.805	1600.320
685.933	1602.990
686.062	1573.876
686.190	1586.495
686.318	1590.959
686.446	1587.072
686.574	1572.495
686.702	1594.031
686.830	1571.196
686.958	1576.680
687.087	1572.258
687.215	1562.691
687.343	1561.907
687.471	1565.742
687.599	1540.010
687.727	1537.072
687.855	1539.948
687.983	1535.216
688.112	1537.546
688.240	1527.113
688.368	1531.804
688.496	1529.186
688.624	1521.103
688.752	1521.268
688.880	1504.959
689.008	1508.423
689.137	1505.485
689.265	1492.763
689.393	1487.124
689.521	1493.588
689.649	1483.773
689.777	1467.113
689.905	1472.835
690.033	1474.794
690.162	1466.392
690.290	1462.258
690.418	1458.000
690.546	1453.598
690.674	1446.660
690.802	1432.660
690.930	1438.464
691.058	1422.433
691.187	1410.103
691.315	1415.361
691.443	1399.526
691.571	1393.258
691.699	1391.763
691.827	1392.052
691.955	1388.196
692.083	1385.402
692.212	1372.876
692.340	1374.031
692.468	1355.753
692.596	1357.907
692.724	1354.608
692.852	1344.907
692.980	1344.186
693.108	1336.134
693.237	1330.268
693.365	1319.010
693.493	1324.186
693.621	1297.598
693.749	1302.041
693.877	1299.567
694.005	1293.474
694.133	1287.670
694.262	1294.113
694.390	1283.598
694.518	1263.299
694.646	1259.289
694.774	1265.515
694.902	1250.794
695.030	1266.464
695.158	1236.526
695.287	1240.938
695.415	1234.742
695.543	1237.041
695.671	1232.485
695.799	1218.474
695.927	1213.835
696.055	1213.134
696.183	1212.309
696.312	1212.052
696.440	1198.227
696.568	1202.247
696.696	1181.784
696.824	1177.268
696.952	1178.258
697.080	1166.814
697.208	1171.969
697.337	1164.464
697.465	1156.299
697.593	1155.825
697.721	1142.093
697.849	1142.041
697.977	1143.536
698.105	1144.577
698.233	1133.804
698.362	1120.546
698.490	1128.196
698.618	1116.330
698.746	1105.969
698.874	1112.763
699.002	1106.062
699.130	1102.567
699.258	1099.443
699.387	1095.134
699.515	1086.639
699.643	1083.845
699.771	1081.876
699.899	1068.763
700.027	1056.216
700.155	1064.866
700.283	1059.351
700.412	1043.773
700.540	1052.876
700.668	1035.814
700.796	1040.546
700.924	1027.454
701.052	1023.330
701.180	1020.299
701.308	1012.113
701.437	1001.804
701.565	1000.660
701.693	996.474
701.821	1005.351
701.949	998.588
702.077	986.392
702.205	992.155
702.333	986.639
702.462	976.588
702.590	970.928
702.718	968.598
702.846	954.907
702.974	956.464
703.102	951.031
703.230	935.031
703.358	927.412
703.487	929.990
703.615	925.825
703.743	919.165
703.871	905.196
703.999	909.948
704.127	906.196
704.255	901.175
704.383	900.010
704.512	880.619
704.640	882.072
704.768	868.433
704.896	867.134
705.024	857.639
705.152	856.392
705.280	853.804
705.408	856.959
705.537	851.175
705.665	845.567
705.793	839.866
705.921	828.237
706.049	825.835
706.177	826.979
706.305	830.206
706.433	819.897
706.562	806.969
706.690	806.577
706.818	800.742
706.946	796.649
707.074	787.299
707.202	785.691
707.330	780.959
707.458	784.268
707.587	779.732
707.715	771.742
707.843	770.000
707.971	769.567
708.099	760.340
708.227	751.639
708.355	752.649
708.483	749.351
708.612	750.959
708.740	746.124
708.868	733.144
708.996	739.990
709.124	728.206
709.252	728.969
709.380	713.856
709.508	709.639
709.637	717.660
709.765	710.845
709.893	708.639
710.021	707.629
710.149	697.155
710.277	693.969
710.405	698.485
710.533	689.711
710.662	686.443
710.790	693.258
710.918	680.969
711.046	683.268
711.174	679.258
711.302	672.072
711.430	666.474
711.558	671.887
711.687	659.186
711.815	662.103
711.943	658.784
712.071	660.887
712.199	651.691
712.327	649.113
712.455	648.443
712.583	648.711
712.712	651.485
712.840	637.381
712.968	631.598
713.096	636.268
713.224	625.629
713.352	623.557
713.480	627.227
713.608	619.907
713.737	610.000
713.865	612.722
713.993	610.567
714.121	602.155
714.249	616.196
714.377	599.876
714.505	601.505
714.633	592.402
714.762	591.557
714.890	592.629
715.018	594.072
715.146	587.186
715.274	577.742
715.402	581.227
715.530	578.825
715.658	576.866
715.787	570.577
715.915	568.845
716.043	562.392
716.171	564.990
716.299	568.216
716.427	563.619
716.555	559.773
716.683	555.155
716.812	554.897
716.940	556.330
717.068	543.763
717.196	545.443
717.324	541.381
717.452	542.557
717.580	537.773
717.708	528.113
717.837	530.557
717.965	528.691
718.093	527.670
718.221	522.268
718.349	523.134
718.477	517.763
718.605	517.175
718.733	511.000
718.862	510.814
718.990	507.082
719.118	502.433
719.246	503.103
719.374	500.093
719.502	495.629
719.630	489.062
719.758	493.732
719.887	489.763
720.015	488.062
720.143	481.134
720.271	490.392
720.399	480.381
720.527	477.082
720.655	467.093
720.783	474.381
720.912	471.113
721.040	473.557
721.168	467.567
721.296	462.794
721.424	458.196
721.552	453.093
721.680	446.804
721.808	456.175
721.937	448.897
722.065	444.969
722.193	438.474
722.321	450.124
722.449	445.546
722.577	437.186
722.705	431.701
722.833	433.103
722.962	432.258
723.090	425.938
723.218	423.134
723.346	423.784
723.474	421.588
723.602	418.794
723.730	417.433
723.858	415.082
723.987	412.732
724.115	404.175
724.243	404.866
724.371	401.062
724.499	404.577
724.627	405.082
724.755	403.340
724.883	397.113
725.012	400.794
725.140	393.814
725.268	393.062
725.396	384.464
725.524	384.113
725.652	380.113
725.780	385.856
725.908	381.866
726.037	378.062
726.165	373.866
726.293	375.938
726.421	370.103
726.549	367.320
726.677	372.134
726.805	366.052
726.933	363.979
727.062	358.443
727.190	360.093
727.318	357.588
727.446	356.928
727.574	355.918
727.702	351.969
727.830	351.918
727.958	352.711
728.087	351.784
728.215	347.670
728.343	346.299
728.471	343.639
728.599	340.526
728.727	342.835
728.855	342.649
728.983	338.753
729.112	335.216
729.240	338.742
729.368	332.134
729.496	332.392
729.624	331.093
729.752	328.247
729.880	329.423
730.008	325.515
730.137	322.299
730.265	320.845
730.393	317.103
730.521	318.082
730.649	315.237
730.777	315.546
730.905	312.979
731.033	313.412
731.162	310.845
731.290	308.412
731.418	312.371
731.546	309.814
731.674	307.289
731.802	304.454
731.930	305.381
732.058	305.918
732.187	301.691
732.315	298.794
732.443	305.557
732.571	299.938
732.699	298.948
732.827	295.557
732.955	295.041
733.083	293.629
733.212	292.412
733.340	290.196
733.468	290.742
733.596	293.155
733.724	289.072
733.852	289.773
733.980	285.670
734.108	283.588
734.237	283.866
734.365	280.876
734.493	286.598
734.621	283.907
734.749	279.464
734.877	278.979
735.005	277.443
735.133	280.196
735.262	276.113
735.390	271.031
735.518	269.155
735.646	273.866
735.774	270.103
735.902	274.454
736.030	269.742
736.158	268.907
736.287	265.567
736.415	270.330
736.543	266.454
736.671	261.629
736.799	260.639
736.927	260.701
737.055	258.722
737.183	259.866
737.312	257.876
737.440	256.031
737.568	260.938
737.696	258.825
737.824	258.412
737.952	255.907
738.080	250.866
738.208	252.753
738.337	248.216
738.465	250.990
738.593	242.639
738.721	246.670
738.849	252.928
738.977	244.144
739.105	246.113
739.233	244.814
739.362	240.175
739.490	242.433
739.618	241.577
739.746	240.237
739.874	238.351
740.002	238.835
740.130	234.567
740.258	240.021
740.387	239.093
740.515	234.474
740.643	231.680
740.771	236.753
740.899	232.361
741.027	227.629
741.155	232.113
741.283	226.464
741.412	231.031
741.540	229.093
741.668	225.938
741.796	229.113
741.924	228.155
742.052	220.784
742.180	221.010
742.308	219.598
742.437	222.443
742.565	219.732
742.693	218.268
742.821	222.144
742.949	217.536
743.077	220.144
743.205	213.794
743.333	216.062
743.462	213.237
743.590	213.031
743.718	211.495
743.846	208.052
743.974	210.175
744.102	209.258
744.230	209.804
744.358	207.113
744.487	209.144
744.615	207.928
744.743	204.598
744.871	207.784
744.999	204.041
745.127	203.557
745.255	199.000
745.383	201.835
745.512	201.969
745.640	197.423
745.768	196.196
745.896	197.567
746.024	199.897
746.152	195.742
746.280	194.041
746.408	194.206
746.537	194.753
746.665	197.330
746.793	194.660
746.921	198.928
747.049	191.072
747.177	194.567
747.305	190.186
747.433	192.763
747.562	195.464
747.690	193.052
747.818	191.546
747.946	191.619
748.074	186.918
748.202	190.062
748.330	187.598
748.458	187.165
748.587	188.351
748.715	182.928
748.843	185.144
748.971	184.990
749.099	184.381
749.227	185.340
749.355	183.165
749.483	183.072
749.612	182.371
749.740	173.784
749.868	181.258
749.996	178.402
750.124	178.928
750.252	176.948
750.380	175.845
750.508	174.907
750.637	174.351
750.765	177.103
750.893	175.753
751.021	173.258
751.149	177.907
751.277	174.876
751.405	173.608
751.533	175.979
751.662	177.608
751.790	172.763
751.918	175.701
752.046	171.526
752.174	170.928
752.302	172.010
752.430	169.794
752.558	169.113
752.687	168.526
752.815	168.567
752.943	167.351
753.071	167.701
753.199	170.113
753.327	167.660
753.455	165.237
753.583	165.619
753.712	165.722
753.840	164.072
753.968	166.742
754.096	160.526
754.224	164.103
754.352	162.948
754.480	162.835
754.608	160.763
754.737	159.010
754.865	163.010
754.993	161.959
755.121	157.588
755.249	158.536
755.377	156.814
755.505	157.969
755.633	160.072
755.762	156.155
755.890	156.948
756.018	155.835
756.146	157.175
756.274	155.639
756.402	156.959
756.530	155.577
756.658	157.412
756.787	154.515
756.915	150.711
757.043	154.330
757.171	153.804
757.299	152.082
757.427	152.711
757.555	151.577
757.683	154.351
757.812	150.216
757.940	153.897
758.068	151.464
758.196	150.577
758.324	150.443
758.452	149.454
758.580	147.082
758.708	149.969
758.837	148.969
758.965	147.330
759.093	148.186
759.221	148.021
759.349	147.320
759.477	147.814
759.605	145.557
759.733	148.196
759.862	146.639
759.990	143.021
760.118	142.825
760.246	141.845
760.374	142.938
760.502	141.732
760.630	143.392
760.758	142.814
760.887	141.680
761.015	139.835
761.143	142.227
761.271	141.711
761.399	141.536
761.527	140.113
761.655	142.402
761.783	139.763
761.912	139.330
762.040	136.814
762.168	137.392
762.296	137.773
762.424	138.155
762.552	138.536
762.680	135.443
762.808	136.897
762.937	136.526
763.065	136.041
763.193	138.876
763.321	135.289
763.449	136.258
763.577	133.227
763.705	134.392
763.833	137.278
763.962	132.773
764.090	136.856
764.218	134.670
764.346	131.856
764.474	134.485
764.602	132.330
764.730	132.392
764.858	132.330
764.987	132.969
765.115	131.052
765.243	133.134
765.371	131.959
765.499	130.216
765.627	130.866
765.755	127.876
765.883	128.897
766.012	129.866
766.140	128.330
766.268	131.093
766.396	128.856
766.524	129.753
766.652	129.423
766.780	128.124
766.908	128.330
767.037	129.021
767.165	128.247
767.293	129.701
767.421	129.351
767.549	126.722
767.677	127.866
767.805	127.763
767.933	127.278
768.062	127.186
768.190	124.474
768.318	127.505
768.446	125.711
768.574	124.990
768.702	125.784
768.830	125.546
768.958	125.289
769.087	127.567
769.215	126.979
769.343	126.103
769.471	125.649
769.599	128.969
769.727	125.660
769.855	124.845
769.983	123.165
770.112	125.113
770.240	126.474
770.368	123.959
770.496	126.670
770.624	123.959
770.752	125.196
770.880	124.361
771.008	125.041
771.137	122.010
771.265	122.392
771.393	123.196
771.521	122.876
771.649	123.907
771.777	120.856
771.905	121.701
772.033	126.361
772.162	126.031
772.290	122.835
772.418	125.237
772.546	123.649
772.674	124.237
772.802	121.433
772.930	119.474
773.058	120.773
773.187	118.186
773.315	121.928
773.443	120.557
773.571	123.062
773.699	118.948
773.827	119.443
773.955	120.072
774.083	121.918
774.212	119.598
774.340	121.742
774.468	118.722
774.596	121.412
774.724	121.814
774.852	119.876
774.980	120.619
775.108	117.948
775.237	118.206
775.365	116.505
775.493	119.247
775.621	115.928
775.749	118.052
775.877	120.206
776.005	120.371
776.133	120.103
776.262	120.402
776.390	117.732
776.518	117.464
776.646	118.278
776.774	116.454
776.902	119.165
777.030	119.010
777.158	115.979
777.287	118.567
777.415	117.237
777.543	117.763
777.671	116.784
777.799	116.845
777.927	117.711
778.055	114.278
778.183	115.711
778.312	115.412
778.440	117.309
778.568	116.175
778.696	115.887
778.824	117.299
778.952	116.031
779.080	115.536
779.208	116.103
779.337	115.474
779.465	114.567
779.593	115.773
779.721	115.763
779.849	113.979
779.977	116.289
780.105	115.649
780.233	115.711
780.362	114.258
780.490	113.526
780.618	115.515
780.746	115.340
780.874	112.392
781.002	113.742
781.130	114.598
781.258	112.969
781.387	114.887
781.515	114.856
781.643	112.113
781.771	114.124
781.899	114.907
782.027	112.423
782.155	112.227
782.283	112.670
782.412	111.701
782.540	115.928
782.668	114.000
782.796	112.175
782.924	113.680
783.052	111.454
783.180	112.175
783.308	112.072
783.437	112.082
783.565	111.330
783.693	111.680
783.821	113.371
783.949	112.505
784.077	110.897
784.205	111.216
784.333	112.443
784.462	110.876
784.590	112.392
784.718	110.711
784.846	110.093
784.974	110.103
785.102	111.041
785.230	112.144
785.358	111.227
785.487	109.866
785.615	110.351
785.743	110.134
785.871	109.794
785.999	111.299
786.127	110.010
786.255	110.856
786.383	110.423
786.512	109.938
786.640	109.072
786.768	111.990
786.896	110.887
787.024	111.845
787.152	108.804
787.280	108.794
787.408	110.485
787.537	107.845
787.665	109.567
787.793	108.608
787.921	109.412
788.049	110.113
788.177	107.907
788.305	108.784
788.433	108.649
788.562	108.680
788.690	109.206
788.818	109.237
788.946	107.711
789.074	108.443
789.202	107.814
789.330	108.969
789.458	108.557
789.587	109.485
789.715	108.165
789.843	108.711
789.971	108.598
790.099	108.464
790.227	106.103
790.355	107.557
790.483	107.897
790.612	107.454
790.740	108.588
790.868	109.299
790.996	109.268
791.124	107.680
791.252	108.567
791.380	108.392
791.508	105.371
791.637	107.031
791.765	107.206
791.893	106.000
792.021	105.701
792.149	107.351
792.277	107.247
792.405	108.351
792.533	107.134
792.662	105.773
792.790	107.299
792.918	109.186
793.046	106.701
793.174	106.969
793.302	107.021
793.430	107.258
793.558	107.474
793.687	106.629
793.815	105.423
793.943	104.835
794.071	104.918
794.199	105.711
794.327	105.794
794.455	105.485
794.583	105.134
794.712	107.103
794.840	106.216
794.968	106.825
795.096	106.897
795.224	105.856
795.352	105.381
795.480	105.454
795.608	106.392
795.737	105.959
795.865	105.979
795.993	104.423
796.121	104.041
796.249	105.938
796.377	105.340
796.505	104.887
796.633	106.505
796.762	105.381
796.890	106.969
797.018	105.866
797.146	105.454
797.274	105.165
797.402	104.814
797.530	106.742
797.658	105.412
797.787	104.990
797.915	105.247
798.043	106.619
798.171	105.546
798.299	103.835
798.427	105.186
798.555	103.804
798.683	103.794
798.812	104.608
798.940	105.072
799.068	104.660
799.196	104.660
799.324	103.825
799.452	104.835
799.580	103.897
799.708	104.124
799.837	104.825
799.965	103.856
800.093	103.495
800.221	103.825
800.349	105.268
800.477	104.134
800.605	104.289
800.733	104.021
800.862	104.443
800.990	102.959
801.118	102.330
801.246	103.268
801.374	103.000
801.502	103.072
801.630	102.485
801.758	103.144
801.887	102.340
802.015	103.247
802.143	103.186
802.271	105.206
802.399	103.608
802.527	102.608
802.655	103.258
802.783	102.041
802.912	102.918
803.040	102.258
803.168	102.794
803.296	103.289
803.424	102.784
803.552	103.196
803.680	103.082
803.808	103.175
803.937	103.423
804.065	103.969
804.193	101.629
804.321	102.031
804.449	102.000
804.577	102.144
804.705	103.474
804.833	101.670
804.962	101.134
805.090	103.052
805.218	102.722
805.346	103.588
805.474	103.082
805.602	102.711
805.730	101.588
805.858	102.041
805.987	101.021
806.115	102.608
806.243	101.866
806.371	100.856
806.499	102.082
806.627	102.402
806.755	102.876
806.883	103.258
807.012	101.732
807.140	101.856
807.268	101.505
807.396	102.093
807.524	101.732
807.652	102.588
807.780	102.505
807.908	101.412
808.037	101.000
808.165	102.186
808.293	101.412
808.421	102.454
808.549	103.124
808.677	102.021
808.805	102.124
808.933	101.093
809.062	101.732
809.190	100.876
809.318	101.907
809.446	100.938
809.574	101.278
809.702	101.608
809.830	102.175
809.958	100.186
810.087	101.000
810.215	102.567
810.343	101.938
810.471	102.392
810.599	101.670
810.727	102.814
810.855	100.309
810.983	100.639
811.112	103.495
811.240	101.247
811.368	101.567
811.496	101.567
811.624	101.454
811.752	100.742
811.880	101.402
812.008	100.371
812.137	100.505
812.265	100.206
812.393	99.412
812.521	100.680
812.649	101.062
812.777	101.340
812.905	101.773
813.033	99.577
813.162	98.856
813.290	101.351
813.418	99.990
813.546	100.649
813.674	101.598
813.802	99.423
813.930	100.113
814.058	99.969
814.187	99.814
814.315	100.423
814.443	99.361
814.571	98.443
814.699	100.536
814.827	102.464
814.955	100.753
815.083	100.268
815.212	101.268
815.340	100.093
815.468	99.515
815.596	100.082
815.724	100.536
815.852	100.412
815.980	100.619
816.108	99.825
816.237	100.155
816.365	100.289
816.493	99.412
816.621	98.907
816.749	101.041
816.877	98.990
817.005	100.546
817.133	100.216
817.262	101.557
817.390	100.454
817.518	98.938
817.646	98.732
817.774	99.825
817.902	100.021
818.030	99.887
818.158	100.134
818.287	101.165
818.415	98.928
818.543	98.773
818.671	100.979
818.799	100.639
818.927	100.670
819.055	98.258
819.183	99.773
819.312	99.990
819.440	99.258
819.568	101.361
819.696	100.237
819.824	100.412
819.952	98.175
820.080	99.258
820.208	98.825
820.337	100.763
820.465	100.010
820.593	98.918
820.721	100.165
820.849	99.155
820.977	98.845
821.105	100.371
821.233	99.773
821.362	99.485
821.490	101.031
821.618	99.639
821.746	97.680
821.874	98.608
822.002	98.845
822.130	101.124
822.258	100.041
822.387	98.639
822.515	99.670
822.643	99.464
822.771	97.845
822.899	99.990
823.027	99.866
823.155	97.876
823.283	98.567
823.412	99.804
823.540	98.825
823.668	99.546
823.796	98.330
823.924	99.608
824.052	98.515
824.180	97.361
824.308	99.680
824.437	97.082
824.565	98.763
824.693	99.691
824.821	99.804
824.949	98.722
825.077	99.464
825.205	97.351
825.333	97.856
825.462	98.845
825.590	97.515
825.718	97.464
825.846	99.062
825.974	98.526
826.102	99.320
826.230	98.608
826.358	98.196
826.487	98.443
826.615	97.722
826.743	98.577
826.871	99.763
826.999	99.124
827.127	98.536
827.255	98.216
827.383	97.742
827.512	97.515
827.640	99.464
827.768	98.515
827.896	97.825
828.024	98.897
828.152	98.897
828.280	99.753
828.408	98.814
828.537	98.155
828.665	98.959
828.793	98.237
828.921	98.072
829.049	98.155
829.177	98.918
829.305	99.722
829.433	98.979
829.562	97.897
829.690	98.691
829.818	98.216
829.946	98.959
830.074	98.021
830.202	99.948
830.330	98.010
830.458	98.670
830.587	98.515
830.715	98.897
830.843	98.113
830.971	98.093
831.099	97.608
831.227	98.165
831.355	98.639
831.483	99.072
831.612	97.454
831.740	98.495
831.868	98.763
831.996	98.691
832.124	99.392
832.252	97.639
832.380	97.515
832.508	98.794
832.637	99.505
832.765	98.629
832.893	98.216
833.021	98.485
833.149	98.526
833.277	99.165
833.405	99.784
833.533	97.227
833.662	98.732
833.790	98.351
833.918	98.959
834.046	99.093
834.174	99.227
834.302	97.804
834.430	98.237
834.558	98.969
834.687	98.206
834.815	99.031
834.943	98.495
835.071	97.495
835.199	97.505
835.327	97.742
835.455	97.227
835.583	99.990
835.712	98.144
835.840	97.804
835.968	98.258
836.096	98.247
836.224	98.804
836.352	99.103
836.480	99.381
836.608	97.722
836.737	97.722
836.865	98.289
836.993	97.649
837.121	99.093
837.249	97.856
837.377	98.660
837.505	98.165
837.633	98.639
837.762	98.330
837.890	99.351
838.018	97.567
838.146	98.062
838.274	98.165
838.402	98.845
838.530	96.938
838.658	96.732
838.787	98.041
838.915	97.845
839.043	98.907
839.171	98.124
839.299	98.948
839.427	97.680
839.555	98.454
839.683	99.639
839.812	98.722
839.940	97.979
840.068	98.165
840.196	99.588
840.324	98.495
840.452	98.526
840.580	99.433
840.708	98.330
840.837	97.825
840.965	98.258
841.093	98.804
841.221	99.082
841.349	99.680
841.477	99.495
841.605	96.990
841.733	97.588
841.862	99.247
841.990	98.598
842.118	98.649
842.246	97.216
842.374	98.536
842.502	99.474
842.630	98.619
842.758	98.309
842.887	97.804
843.015	97.196
843.143	97.443
843.271	98.361
843.399	97.598
843.527	97.165
843.655	98.062
843.783	97.959
843.912	98.866
844.040	98.866
844.168	99.887
844.296	99.691
844.424	98.897
844.552	98.474
844.680	97.412
844.808	98.103
844.937	97.454
845.065	97.907
845.193	98.216
845.321	97.835
845.449	98.670
845.577	99.381
845.705	97.732
845.833	99.299
845.962	97.454
846.090	96.495
846.218	97.505
846.346	99.062
846.474	97.227
846.602	97.856
846.730	97.371
846.858	97.464
846.987	98.021
847.115	98.784
847.243	98.309
847.371	98.381
847.499	96.258
847.627	98.649
847.755	97.557
847.883	96.845
848.012	97.485
848.140	98.113
848.268	97.722
848.396	96.907
848.524	99.186
848.652	99.031
848.780	97.711
848.908	99.258
849.037	98.598
849.165	99.124
849.293	96.856
849.421	98.237
849.549	98.454
849.677	97.103
849.805	98.093
849.933	98.392
850.062	98.825
850.190	98.866
850.318	97.155
850.446	98.784
850.574	99.093
850.702	97.680
850.830	97.619
850.958	97.299
851.087	99.629
851.215	98.124
851.343	98.165
851.471	98.732
851.599	98.474
851.727	97.485
851.855	98.474
851.983	98.948
852.112	98.938
852.240	97.979
852.368	97.670
852.496	97.948
852.624	98.825
852.752	96.289
852.880	98.072
853.008	98.588
853.137	99.423
853.265	99.649
853.393	98.381
853.521	98.412
853.649	98.546
853.777	98.443
853.905	97.062
854.033	97.175
854.162	98.000
854.290	98.093
854.418	97.639
854.546	96.887
854.674	97.784
854.802	96.876
854.930	97.598
855.058	98.052
855.187	97.938
855.315	97.680
855.443	99.113
855.571	98.794
855.699	98.206
855.827	97.515
855.955	97.711
856.083	98.423
856.212	99.402
856.340	98.588
856.468	97.773
856.596	97.928
856.724	97.979
856.852	97.392
856.980	97.072
857.108	98.588
857.237	98.206
857.365	96.619
857.493	98.495
857.621	96.773
857.749	97.309
857.877	97.361
858.005	99.577
858.133	95.887
858.262	97.619
858.390	98.309
858.518	97.526
858.646	97.701
858.774	99.062
858.902	98.835
859.030	97.794
859.158	97.732
859.287	97.948
859.415	97.928
859.543	97.649
859.671	98.320
859.799	97.918
859.927	98.010
860.055	98.124
860.183	97.351
860.312	97.464
860.440	97.268
860.568	100.175
860.696	98.474
860.824	97.722
860.952	97.608
861.080	97.639
861.208	98.175
861.337	98.371
861.465	96.928
861.593	99.052
861.721	98.268
861.849	98.278
861.977	98.093
862.105	98.072
862.233	97.608
862.362	98.608
862.490	97.711
862.618	98.093
862.746	98.536
862.874	98.691
863.002	98.206
863.130	98.309
863.258	99.144
863.387	98.124
863.515	98.062
863.643	98.000
863.771	99.227
863.899	98.454
864.027	99.619
864.155	99.206
864.283	97.072
864.412	99.361
864.540	99.165
864.668	97.979
864.796	98.742
864.924	99.423
865.052	97.361
865.180	98.134
865.308	97.969
865.437	97.485
865.565	97.268
865.693	97.206
865.821	98.495
865.949	99.608
866.077	99.433
866.205	97.577
866.333	97.639
866.462	98.144
866.590	98.299
866.718	97.856
866.846	98.835
866.974	97.845
867.102	97.701
867.230	97.144
867.358	98.093
867.487	98.485
867.615	98.289
867.743	97.711
867.871	99.649
867.999	98.835
868.127	98.897
868.255	98.557
868.383	99.670
868.512	98.619
868.640	97.536
868.768	98.773
868.896	96.722
869.024	97.876
869.152	98.021
869.280	98.887
869.408	99.577
869.537	98.113
869.665	98.835
869.793	97.474
869.921	99.433
870.049	99.608
870.177	99.052
870.305	98.309
870.433	99.649
870.562	98.433
870.690	99.227
870.818	98.093
870.946	98.351
871.074	98.577
871.202	97.670
871.330	99.299
871.458	99.052
871.587	99.134
871.715	98.134
871.843	98.887
871.971	99.485
872.099	96.959
872.227	98.825
872.355	98.639
872.483	98.763
872.612	99.268
872.740	97.763
872.868	98.052
872.996	97.299
873.124	97.588
873.252	99.010
873.380	99.289
873.508	99.082
873.637	98.928
873.765	98.567
873.893	98.165
874.021	99.660
874.149	100.082
874.277	98.763
874.405	98.402
874.533	100.216
874.662	98.381
874.790	98.928
874.918	99.113
875.046	98.196
875.174	98.515
875.302	99.186
875.430	99.000
875.558	98.000
875.687	98.495
875.815	99.897
875.943	99.093
876.071	99.454
876.199	99.155
876.327	98.557
876.455	99.505
876.583	99.433
876.712	99.742
876.840	97.546
876.968	98.515
877.096	98.959
877.224	99.515
877.352	97.299
877.480	97.010
877.608	99.247
877.737	99.052
877.865	98.031
877.993	98.093
878.121	98.608
878.249	99.598
878.377	99.351
878.505	97.072
878.633	99.330
878.762	99.804
878.890	99.175
879.018	98.412
879.146	99.196
879.274	98.526
879.402	99.784
879.530	97.361
879.658	99.639
879.787	98.454
879.915	98.825
880.043	98.598
880.171	97.876
880.299	98.619
880.427	99.443
880.555	98.608
880.683	99.340
880.812	98.969
880.940	97.598
881.068	99.443
881.196	98.845
881.324	100.247
881.452	98.825
881.580	98.959
881.708	98.454
881.837	98.794
881.965	99.371
882.093	99.485
882.221	98.701
882.349	97.928
882.477	98.918
882.605	100.876
882.733	100.134
882.862	99.845
882.990	98.629
883.118	99.557
883.246	98.711
883.374	100.113
883.502	98.515
883.630	101.062
883.758	98.887
883.887	99.433
884.015	100.784
884.143	99.825
884.271	100.247
884.399	98.124
884.527	98.371
884.655	99.412
884.783	99.979
884.912	99.588
885.040	98.918
885.168	99.103
885.296	99.433
885.424	98.361
885.552	99.866
885.680	97.701
885.808	100.186
885.937	99.969
886.065	98.835
886.193	99.175
886.321	99.227
886.449	99.247
886.577	98.052
886.705	98.515
886.833	99.794
886.962	99.526
887.090	98.588
887.218	98.918
887.346	98.495
887.474	100.093
887.602	99.588
887.730	97.598
887.858	99.526
887.987	98.381
888.115	98.701
888.243	99.619
888.371	100.948
888.499	100.526
888.627	98.041
888.755	98.639
888.883	99.443
889.012	99.206
889.140	97.938
889.268	97.371
889.396	99.227
889.524	98.907
889.652	99.247
889.780	98.948
889.908	98.268
890.037	98.412
890.165	98.619
890.293	98.515
890.421	99.680
890.549	99.237
890.677	98.134
890.805	100.423
890.933	99.175
891.062	99.619
891.190	98.495
891.318	100.216
891.446	100.711
891.574	98.258
891.702	98.041
891.830	98.175
891.958	99.227
892.087	100.526
892.215	100.320
892.343	100.134
892.471	98.814
892.599	98.856
892.727	100.773
892.855	99.918
892.983	100.526
893.112	99.959
893.240	100.268
893.368	101.680
893.496	101.175
893.624	100.206
893.752	99.392
893.880	98.278
894.008	98.701
894.137	99.216
894.265	100.052
894.393	100.186
894.521	100.237
894.649	99.010
894.777	99.144
894.905	99.423
895.033	101.361
895.162	100.330
895.290	98.969
895.418	99.876
895.546	101.289
895.674	99.629
895.802	98.887
895.930	99.330
896.058	99.021
896.187	99.134
896.315	99.845
896.443	98.835
896.571	100.165
896.699	100.340
896.827	99.577
896.955	98.897
897.083	100.454
897.212	101.546
897.340	98.392
897.468	97.959
897.596	99.969
897.724	98.278
897.852	99.351
897.980	100.299
898.108	98.588
898.237	99.340
898.365	99.464
898.493	99.701
898.621	99.907
898.749	100.227
898.877	99.031
899.005	98.598
899.133	99.897
899.262	99.536
899.390	98.423
899.518	98.866
899.646	98.629
899.774	100.443
899.902	99.680
900.030	99.722
900.158	99.454
900.287	100.041
900.415	99.423
900.543	99.186
900.671	100.608
900.799	100.062
900.927	98.433
901.055	99.175
901.183	99.268
901.312	99.474
901.440	100.598
901.568	99.320
901.696	99.443
901.824	99.093
901.952	100.680
902.080	99.371
902.208	100.000
902.337	100.887
902.465	99.763
902.593	100.113
902.721	99.959
902.849	100.505
902.977	98.680
903.105	99.577
903.233	99.371
903.362	100.577
903.490	99.763
903.618	99.268
903.746	99.412
903.874	99.670
904.002	101.144
904.130	99.670
904.258	99.289
904.387	98.928
904.515	98.629
904.643	99.515
904.771	100.196
904.899	99.619
905.027	100.021
905.155	98.546
905.283	99.371
905.412	100.649
905.540	99.742
905.668	98.876
905.796	97.969
905.924	100.093
906.052	100.371
906.180	101.031
906.308	98.165
906.437	98.237
906.565	99.928
906.693	99.680
906.821	98.845
906.949	99.639
907.077	98.680
907.205	101.299
907.333	100.103
907.462	100.990
907.590	100.814
907.718	99.536
907.846	100.124
907.974	101.515
908.102	100.670
908.230	99.701
908.358	99.093
908.487	98.155
908.615	100.113
908.743	99.629
908.871	100.299
908.999	99.918
909.127	99.227
909.255	98.608
909.383	98.546
909.512	100.794
909.640	100.247
909.768	100.845
909.896	101.041
910.024	99.866
910.152	100.536
910.280	99.258
910.408	101.247
910.537	101.711
910.665	101.103
910.793	100.433
910.921	99.237
911.049	100.165
911.177	99.381
911.305	100.557
911.433	100.773
911.562	100.423
911.690	100.423
911.818	99.711
911.946	100.928
912.074	100.052
912.202	99.670
912.330	98.969
912.458	101.072
912.587	100.186
912.715	100.649
912.843	101.052
912.971	99.918
913.099	100.794
913.227	101.186
913.355	100.495
913.483	101.010
913.612	100.474
913.740	100.680
913.868	99.928
