sample12h_at_750.00nm_cut_at_1060.50Y_01.dat
19.06.2023
11:18:38
cut middle at Y: 1060.50
top cursor: 1109 down cursor: 1012 mean of: 97 lines , 2560 datapoints
wavelength(nm)	intensity[arb. units]
585.996	837.000
586.124	814.052
586.252	813.629
586.380	815.649
586.508	818.474
586.637	818.619
586.765	823.825
586.893	820.588
587.021	826.505
587.149	825.928
587.277	826.495
587.405	826.082
587.533	825.948
587.662	822.784
587.790	830.701
587.918	830.155
588.046	830.175
588.174	827.732
588.302	834.639
588.430	830.897
588.558	838.557
588.687	836.186
588.815	845.134
588.943	844.072
589.071	835.742
589.199	841.670
589.327	838.876
589.455	840.938
589.583	849.680
589.712	852.041
589.840	853.361
589.968	854.237
590.096	848.866
590.224	855.680
590.352	851.454
590.480	853.938
590.608	867.588
590.737	854.175
590.865	860.351
590.993	861.289
591.121	853.124
591.249	852.701
591.377	855.309
591.505	857.495
591.633	861.866
591.762	869.567
591.890	874.660
592.018	865.598
592.146	870.072
592.274	870.206
592.402	865.485
592.530	868.845
592.658	868.196
592.787	868.361
592.915	871.495
593.043	869.474
593.171	861.041
593.299	881.825
593.427	876.000
593.555	877.845
593.683	871.454
593.812	881.814
593.940	884.557
594.068	875.402
594.196	890.536
594.324	885.412
594.452	898.464
594.580	896.031
594.708	894.763
594.837	890.330
594.965	897.515
595.093	890.485
595.221	894.536
595.349	898.216
595.477	903.196
595.605	902.505
595.733	916.010
595.862	908.629
595.990	904.206
596.118	904.938
596.246	923.928
596.374	913.041
596.502	917.969
596.630	915.742
596.758	923.938
596.887	922.639
597.015	921.454
597.143	911.557
597.271	915.588
597.399	920.103
597.527	923.485
597.655	924.959
597.783	928.041
597.912	927.536
598.040	918.804
598.168	919.794
598.296	924.773
598.424	926.907
598.552	929.155
598.680	924.278
598.808	924.072
598.937	936.165
599.065	940.206
599.193	930.361
599.321	928.835
599.449	931.608
599.577	926.670
599.705	926.351
599.833	933.639
599.962	925.619
600.090	929.835
600.218	923.959
600.346	938.546
600.474	931.031
600.602	940.485
600.730	934.567
600.858	938.722
600.987	931.082
601.115	935.258
601.243	934.608
601.371	947.227
601.499	937.206
601.627	935.763
601.755	945.835
601.883	949.619
602.012	952.536
602.140	950.660
602.268	954.567
602.396	956.031
602.524	947.052
602.652	962.701
602.780	956.619
602.908	962.361
603.037	971.381
603.165	963.536
603.293	986.856
603.421	975.546
603.549	971.825
603.677	980.082
603.805	972.577
603.933	979.742
604.062	983.072
604.190	987.649
604.318	988.876
604.446	999.052
604.574	999.320
604.702	999.990
604.830	997.680
604.958	1003.454
605.087	1013.165
605.215	1006.732
605.343	1017.309
605.471	1029.113
605.599	1013.866
605.727	1022.433
605.855	1015.268
605.983	1026.639
606.112	1029.588
606.240	1028.979
606.368	1025.505
606.496	1021.237
606.624	1032.515
606.752	1023.948
606.880	1039.175
607.008	1038.742
607.137	1032.938
607.265	1034.598
607.393	1040.247
607.521	1037.536
607.649	1027.588
607.777	1035.639
607.905	1039.289
608.033	1047.763
608.162	1039.144
608.290	1044.598
608.418	1056.639
608.546	1046.567
608.674	1059.536
608.802	1053.928
608.930	1049.381
609.058	1046.680
609.187	1056.103
609.315	1044.155
609.443	1041.536
609.571	1049.691
609.699	1038.392
609.827	1039.763
609.955	1047.948
610.083	1045.124
610.212	1045.619
610.340	1047.041
610.468	1050.351
610.596	1058.588
610.724	1054.196
610.852	1054.216
610.980	1060.948
611.108	1058.175
611.237	1049.845
611.365	1054.639
611.493	1053.247
611.621	1058.990
611.749	1064.289
611.877	1057.165
612.005	1058.464
612.133	1063.577
612.262	1059.423
612.390	1063.959
612.518	1066.887
612.646	1062.814
612.774	1073.320
612.902	1070.866
613.030	1076.918
613.158	1076.144
613.287	1080.835
613.415	1075.124
613.543	1081.814
613.671	1088.845
613.799	1085.639
613.927	1084.021
614.055	1090.938
614.183	1094.753
614.312	1089.598
614.440	1095.330
614.568	1093.289
614.696	1098.959
614.824	1110.784
614.952	1105.052
615.080	1104.309
615.208	1113.495
615.337	1114.670
615.465	1114.206
615.593	1127.577
615.721	1112.165
615.849	1124.474
615.977	1120.258
616.105	1123.000
616.233	1119.588
616.362	1129.887
616.490	1121.196
616.618	1125.835
616.746	1128.835
616.874	1132.454
617.002	1133.206
617.130	1141.959
617.258	1137.299
617.387	1134.309
617.515	1137.876
617.643	1139.392
617.771	1143.464
617.899	1144.433
618.027	1143.175
618.155	1141.134
618.283	1131.443
618.412	1142.299
618.540	1149.371
618.668	1146.567
618.796	1141.113
618.924	1157.381
619.052	1148.515
619.180	1153.299
619.308	1156.103
619.437	1161.381
619.565	1155.639
619.693	1155.866
619.821	1164.340
619.949	1161.031
620.077	1156.423
620.205	1167.990
620.333	1168.031
620.462	1179.536
620.590	1174.361
620.718	1175.753
620.846	1162.804
620.974	1185.052
621.102	1177.381
621.230	1175.763
621.358	1180.402
621.487	1183.206
621.615	1180.361
621.743	1185.031
621.871	1183.814
621.999	1169.103
622.127	1191.495
622.255	1178.247
622.383	1180.134
622.512	1197.052
622.640	1185.670
622.768	1191.227
622.896	1182.258
623.024	1191.320
623.152	1197.423
623.280	1193.289
623.408	1190.794
623.537	1202.247
623.665	1198.268
623.793	1202.320
623.921	1199.227
624.049	1202.320
624.177	1205.227
624.305	1199.794
624.433	1196.320
624.562	1203.186
624.690	1201.113
624.818	1200.134
624.946	1208.402
625.074	1197.649
625.202	1209.680
625.330	1204.443
625.458	1203.237
625.587	1199.784
625.715	1212.639
625.843	1211.670
625.971	1211.351
626.099	1204.794
626.227	1206.804
626.355	1212.969
626.483	1219.887
626.612	1219.031
626.740	1213.907
626.868	1206.186
626.996	1227.701
627.124	1213.144
627.252	1212.536
627.380	1222.608
627.508	1214.588
627.637	1219.402
627.765	1228.021
627.893	1230.072
628.021	1225.268
628.149	1237.485
628.277	1236.093
628.405	1230.588
628.533	1233.113
628.662	1234.351
628.790	1233.784
628.918	1239.010
629.046	1229.825
629.174	1231.258
629.302	1239.330
629.430	1242.670
629.558	1242.567
629.687	1245.876
629.815	1254.186
629.943	1245.773
630.071	1243.897
630.199	1259.021
630.327	1247.052
630.455	1245.206
630.583	1265.825
630.712	1259.371
630.840	1254.948
630.968	1265.670
631.096	1270.773
631.224	1266.278
631.352	1268.577
631.480	1264.412
631.608	1271.103
631.737	1266.660
631.865	1294.309
631.993	1264.907
632.121	1271.361
632.249	1284.990
632.377	1274.763
632.505	1277.907
632.633	1274.680
632.762	1283.794
632.890	1283.557
633.018	1282.474
633.146	1293.330
633.274	1283.866
633.402	1288.485
633.530	1292.588
633.658	1296.887
633.787	1277.515
633.915	1294.660
634.043	1296.299
634.171	1292.804
634.299	1294.938
634.427	1286.670
634.555	1294.670
634.683	1307.567
634.812	1291.268
634.940	1302.021
635.068	1296.557
635.196	1298.134
635.324	1313.753
635.452	1303.928
635.580	1299.691
635.708	1300.773
635.837	1301.887
635.965	1288.320
636.093	1295.938
636.221	1291.144
636.349	1288.649
636.477	1285.619
636.605	1288.825
636.733	1293.258
636.862	1292.165
636.990	1295.258
637.118	1301.588
637.246	1285.052
637.374	1302.072
637.502	1284.680
637.630	1290.794
637.758	1278.546
637.887	1296.742
638.015	1289.784
638.143	1302.680
638.271	1293.629
638.399	1303.381
638.527	1286.742
638.655	1287.196
638.783	1298.856
638.912	1302.340
639.040	1287.588
639.168	1284.835
639.296	1295.392
639.424	1289.691
639.552	1295.804
639.680	1296.845
639.808	1285.680
639.937	1294.660
640.065	1295.753
640.193	1303.155
640.321	1296.773
640.449	1304.959
640.577	1299.299
640.705	1295.412
640.833	1295.649
640.962	1308.062
641.090	1304.062
641.218	1303.031
641.346	1306.969
641.474	1307.258
641.602	1301.856
641.730	1315.062
641.858	1316.814
641.987	1316.887
642.115	1318.330
642.243	1321.031
642.371	1329.732
642.499	1315.887
642.627	1319.701
642.755	1317.454
642.883	1339.845
643.012	1326.351
643.140	1328.711
643.268	1342.072
643.396	1341.247
643.524	1339.381
643.652	1339.268
643.780	1336.031
643.908	1334.753
644.037	1334.021
644.165	1342.546
644.293	1360.485
644.421	1352.186
644.549	1351.402
644.677	1367.515
644.805	1354.320
644.933	1352.887
645.062	1357.629
645.190	1345.763
645.318	1345.134
645.446	1376.268
645.574	1355.330
645.702	1376.423
645.830	1363.825
645.958	1368.763
646.087	1365.113
646.215	1372.320
646.343	1379.309
646.471	1377.660
646.599	1378.918
646.727	1366.216
646.855	1369.722
646.983	1393.082
647.112	1378.969
647.240	1384.753
647.368	1373.412
647.496	1382.196
647.624	1369.629
647.752	1384.897
647.880	1382.814
648.008	1384.639
648.137	1375.103
648.265	1383.608
648.393	1385.763
648.521	1384.268
648.649	1383.144
648.777	1374.918
648.905	1383.041
649.033	1375.928
649.162	1379.505
649.290	1386.887
649.418	1370.969
649.546	1373.608
649.674	1378.897
649.802	1377.897
649.930	1371.474
650.058	1383.588
650.187	1381.072
650.315	1387.814
650.443	1378.608
650.571	1378.258
650.699	1382.629
650.827	1398.505
650.955	1377.619
651.083	1379.103
651.212	1379.371
651.340	1386.402
651.468	1393.649
651.596	1393.557
651.724	1383.959
651.852	1369.010
651.980	1383.948
652.108	1398.887
652.237	1384.175
652.365	1390.464
652.493	1385.278
652.621	1390.165
652.749	1383.680
652.877	1383.247
653.005	1396.536
653.133	1392.124
653.262	1394.742
653.390	1396.010
653.518	1390.907
653.646	1399.206
653.774	1398.351
653.902	1421.381
654.030	1385.763
654.158	1392.979
654.287	1400.443
654.415	1388.144
654.543	1399.742
654.671	1391.701
654.799	1397.144
654.927	1393.134
655.055	1389.021
655.183	1395.979
655.312	1398.165
655.440	1389.804
655.568	1402.505
655.696	1397.423
655.824	1410.825
655.952	1393.041
656.080	1394.258
656.208	1406.433
656.337	1395.557
656.465	1410.505
656.593	1415.113
656.721	1405.278
656.849	1408.278
656.977	1400.433
657.105	1406.649
657.233	1399.113
657.362	1405.402
657.490	1407.268
657.618	1411.227
657.746	1410.144
657.874	1399.423
658.002	1409.402
658.130	1402.608
658.258	1416.485
658.387	1410.113
658.515	1397.990
658.643	1406.959
658.771	1411.546
658.899	1408.732
659.027	1413.546
659.155	1401.340
659.283	1401.340
659.412	1400.505
659.540	1414.062
659.668	1405.206
659.796	1398.031
659.924	1418.732
660.052	1413.845
660.180	1399.546
660.308	1422.784
660.437	1413.371
660.565	1417.804
660.693	1411.351
660.821	1420.495
660.949	1430.938
661.077	1407.990
661.205	1408.247
661.333	1417.093
661.462	1432.918
661.590	1416.691
661.718	1412.165
661.846	1426.443
661.974	1426.330
662.102	1426.289
662.230	1420.093
662.358	1425.237
662.487	1424.134
662.615	1417.515
662.743	1428.536
662.871	1430.289
662.999	1425.825
663.127	1435.052
663.255	1428.474
663.383	1438.794
663.512	1441.639
663.640	1446.825
663.768	1438.515
663.896	1425.907
664.024	1436.938
664.152	1444.711
664.280	1445.351
664.408	1435.454
664.537	1447.598
664.665	1459.031
664.793	1441.856
664.921	1442.515
665.049	1443.649
665.177	1465.928
665.305	1450.619
665.433	1454.825
665.562	1454.361
665.690	1453.237
665.818	1459.216
665.946	1452.856
666.074	1460.773
666.202	1460.165
666.330	1451.113
666.458	1459.866
666.587	1475.052
666.715	1467.773
666.843	1467.165
666.971	1462.103
667.099	1477.196
667.227	1475.227
667.355	1462.897
667.483	1465.361
667.612	1479.526
667.740	1474.619
667.868	1474.351
667.996	1475.268
668.124	1480.598
668.252	1484.309
668.380	1472.670
668.508	1491.907
668.637	1488.443
668.765	1483.536
668.893	1480.247
669.021	1478.701
669.149	1472.464
669.277	1476.206
669.405	1482.711
669.533	1491.165
669.662	1479.103
669.790	1475.588
669.918	1485.918
670.046	1475.340
670.174	1485.351
670.302	1483.794
670.430	1481.165
670.558	1476.330
670.687	1483.711
670.815	1480.412
670.943	1491.691
671.071	1478.505
671.199	1474.680
671.327	1471.278
671.455	1480.536
671.583	1477.691
671.712	1468.608
671.840	1475.732
671.968	1473.845
672.096	1481.196
672.224	1476.969
672.352	1474.711
672.480	1473.247
672.608	1466.268
672.737	1486.392
672.865	1465.825
672.993	1470.907
673.121	1467.866
673.249	1465.258
673.377	1452.639
673.505	1467.402
673.633	1456.165
673.762	1454.948
673.890	1454.237
674.018	1465.577
674.146	1451.433
674.274	1454.804
674.402	1453.845
674.530	1449.701
674.658	1456.804
674.787	1442.309
674.915	1447.567
675.043	1443.732
675.171	1436.701
675.299	1434.619
675.427	1439.629
675.555	1450.309
675.683	1435.330
675.812	1427.670
675.940	1433.381
676.068	1429.742
676.196	1421.619
676.324	1420.505
676.452	1423.711
676.580	1426.567
676.708	1429.361
676.837	1438.134
676.965	1434.845
677.093	1426.072
677.221	1434.608
677.349	1415.515
677.477	1431.402
677.605	1410.402
677.733	1421.010
677.862	1425.928
677.990	1416.423
678.118	1416.670
678.246	1408.155
678.374	1410.701
678.502	1416.340
678.630	1402.876
678.758	1412.186
678.887	1413.990
679.015	1419.247
679.143	1389.948
679.271	1411.918
679.399	1412.402
679.527	1395.722
679.655	1406.196
679.783	1394.546
679.912	1396.845
680.040	1410.113
680.168	1413.443
680.296	1386.072
680.424	1402.505
680.552	1406.485
680.680	1399.495
680.808	1388.691
680.937	1398.186
681.065	1402.072
681.193	1393.330
681.321	1402.000
681.449	1387.876
681.577	1389.866
681.705	1392.206
681.833	1394.598
681.962	1392.495
682.090	1404.423
682.218	1408.175
682.346	1389.361
682.474	1391.072
682.602	1396.124
682.730	1385.856
682.858	1393.392
682.987	1401.093
683.115	1386.732
683.243	1396.536
683.371	1386.619
683.499	1390.660
683.627	1396.237
683.755	1387.515
683.883	1395.010
684.012	1383.856
684.140	1382.216
684.268	1396.897
684.396	1389.299
684.524	1399.474
684.652	1397.412
684.780	1402.299
684.908	1392.784
685.037	1390.371
685.165	1390.330
685.293	1391.639
685.421	1393.588
685.549	1392.237
685.677	1393.856
685.805	1392.196
685.933	1393.361
686.062	1383.124
686.190	1390.144
686.318	1400.021
686.446	1384.567
686.574	1390.155
686.702	1401.464
686.830	1393.907
686.958	1383.804
687.087	1394.577
687.215	1384.557
687.343	1374.608
687.471	1388.515
687.599	1381.268
687.727	1387.979
687.855	1382.330
687.983	1368.330
688.112	1385.237
688.240	1374.165
688.368	1380.866
688.496	1380.732
688.624	1382.598
688.752	1376.206
688.880	1370.660
689.008	1371.072
689.137	1372.443
689.265	1366.567
689.393	1362.113
689.521	1364.371
689.649	1369.866
689.777	1360.237
689.905	1360.845
690.033	1360.000
690.162	1351.660
690.290	1338.588
690.418	1347.660
690.546	1351.990
690.674	1351.381
690.802	1346.330
690.930	1337.557
691.058	1334.732
691.187	1333.237
691.315	1332.361
691.443	1328.196
691.571	1319.247
691.699	1318.845
691.827	1324.732
691.955	1316.619
692.083	1318.113
692.212	1303.969
692.340	1308.412
692.468	1304.907
692.596	1306.567
692.724	1311.670
692.852	1292.443
692.980	1294.742
693.108	1285.948
693.237	1291.134
693.365	1285.000
693.493	1277.856
693.621	1275.897
693.749	1275.412
693.877	1272.866
694.005	1272.402
694.133	1274.670
694.262	1262.392
694.390	1264.577
694.518	1258.814
694.646	1247.598
694.774	1248.629
694.902	1250.845
695.030	1252.794
695.158	1253.866
695.287	1241.299
695.415	1241.773
695.543	1230.691
695.671	1238.196
695.799	1228.979
695.927	1228.959
696.055	1228.320
696.183	1238.423
696.312	1220.113
696.440	1216.052
696.568	1216.639
696.696	1205.175
696.824	1205.969
696.952	1207.206
697.080	1201.433
697.208	1203.464
697.337	1189.588
697.465	1202.990
697.593	1193.701
697.721	1192.464
697.849	1190.227
697.977	1184.381
698.105	1190.330
698.233	1185.206
698.362	1177.897
698.490	1181.495
698.618	1174.691
698.746	1170.959
698.874	1178.701
699.002	1176.330
699.130	1171.979
699.258	1171.320
699.387	1156.784
699.515	1146.186
699.643	1167.526
699.771	1152.660
699.899	1153.629
700.027	1145.588
700.155	1141.351
700.283	1139.928
700.412	1125.866
700.540	1144.454
700.668	1129.773
700.796	1122.814
700.924	1120.701
701.052	1118.113
701.180	1116.433
701.308	1110.320
701.437	1105.464
701.565	1104.082
701.693	1103.216
701.821	1108.268
701.949	1090.732
702.077	1083.010
702.205	1093.103
702.333	1077.959
702.462	1077.577
702.590	1082.423
702.718	1080.082
702.846	1066.247
702.974	1068.887
703.102	1075.165
703.230	1053.814
703.358	1051.928
703.487	1055.402
703.615	1042.959
703.743	1050.742
703.871	1033.237
703.999	1033.062
704.127	1028.990
704.255	1018.402
704.383	1024.186
704.512	1017.082
704.640	1012.289
704.768	1009.814
704.896	1003.948
705.024	1002.918
705.152	991.918
705.280	1005.485
705.408	991.897
705.537	988.072
705.665	988.938
705.793	981.464
705.921	978.072
706.049	973.268
706.177	970.742
706.305	971.010
706.433	964.536
706.562	962.402
706.690	960.299
706.818	954.000
706.946	954.773
707.074	947.454
707.202	937.588
707.330	929.485
707.458	942.299
707.587	930.485
707.715	929.680
707.843	923.093
707.971	922.825
708.099	912.268
708.227	909.897
708.355	904.794
708.483	910.608
708.612	907.175
708.740	912.186
708.868	894.598
708.996	903.464
709.124	895.443
709.252	886.165
709.380	884.299
709.508	888.907
709.637	884.938
709.765	869.278
709.893	868.423
710.021	878.041
710.149	877.629
710.277	871.206
710.405	858.464
710.533	863.753
710.662	853.258
710.790	858.629
710.918	853.021
711.046	856.804
711.174	838.412
711.302	842.773
711.430	841.526
711.558	847.897
711.687	833.804
711.815	826.371
711.943	831.330
712.071	832.990
712.199	828.639
712.327	812.536
712.455	814.546
712.583	825.959
712.712	821.804
712.840	821.515
712.968	808.784
713.096	816.041
713.224	806.629
713.352	800.856
713.480	808.175
713.608	802.268
713.737	791.247
713.865	793.804
713.993	788.361
714.121	795.258
714.249	793.113
714.377	782.577
714.505	787.742
714.633	777.959
714.762	778.082
714.890	772.918
715.018	775.979
715.146	768.216
715.274	766.804
715.402	760.144
715.530	769.567
715.658	759.216
715.787	761.928
715.915	761.052
716.043	756.990
716.171	756.691
716.299	751.928
716.427	745.526
716.555	739.938
716.683	740.103
716.812	743.918
716.940	739.278
717.068	732.825
717.196	729.526
717.324	722.990
717.452	726.237
717.580	724.866
717.708	717.186
717.837	714.711
717.965	708.433
718.093	717.010
718.221	705.361
718.349	705.732
718.477	700.732
718.605	696.299
718.733	693.784
718.862	692.021
718.990	693.268
719.118	687.082
719.246	683.196
719.374	681.784
719.502	688.577
719.630	672.227
719.758	675.969
719.887	674.495
720.015	670.371
720.143	666.784
720.271	674.784
720.399	660.680
720.527	659.608
720.655	657.526
720.783	651.835
720.912	643.103
721.040	647.629
721.168	648.990
721.296	637.732
721.424	629.835
721.552	639.907
721.680	633.237
721.808	632.969
721.937	630.165
722.065	621.206
722.193	616.691
722.321	621.361
722.449	612.155
722.577	612.186
722.705	607.134
722.833	606.845
722.962	603.722
723.090	592.959
723.218	587.670
723.346	587.196
723.474	587.928
723.602	582.485
723.730	578.474
723.858	585.144
723.987	580.526
724.115	572.402
724.243	578.031
724.371	565.309
724.499	569.072
724.627	559.629
724.755	561.526
724.883	566.804
725.012	555.969
725.140	547.907
725.268	556.515
725.396	542.505
725.524	545.258
725.652	539.825
725.780	534.505
725.908	536.227
726.037	529.289
726.165	528.742
726.293	525.433
726.421	525.134
726.549	517.526
726.677	526.464
726.805	520.598
726.933	520.876
727.062	512.412
727.190	505.979
727.318	508.588
727.446	507.722
727.574	500.969
727.702	501.773
727.830	504.072
727.958	498.464
728.087	492.052
728.215	482.227
728.343	492.784
728.471	488.588
728.599	484.845
728.727	482.711
728.855	478.763
728.983	473.351
729.112	476.443
729.240	470.959
729.368	469.629
729.496	469.041
729.624	465.258
729.752	464.825
729.880	465.629
730.008	461.691
730.137	457.773
730.265	459.155
730.393	448.763
730.521	453.216
730.649	450.165
730.777	446.381
730.905	445.330
731.033	440.784
731.162	446.691
731.290	442.928
731.418	437.711
731.546	434.670
731.674	431.144
731.802	431.247
731.930	424.938
732.058	428.948
732.187	433.505
732.315	424.526
732.443	429.268
732.571	419.247
732.699	424.206
732.827	416.082
732.955	415.299
733.083	414.289
733.212	408.299
733.340	408.392
733.468	412.320
733.596	406.351
733.724	406.845
733.852	405.711
733.980	405.722
734.108	404.794
734.237	405.124
734.365	396.371
734.493	397.278
734.621	395.742
734.749	396.247
734.877	399.722
735.005	394.237
735.133	389.165
735.262	391.340
735.390	390.928
735.518	385.691
735.646	383.526
735.774	384.598
735.902	382.062
736.030	382.196
736.158	379.258
736.287	378.536
736.415	385.082
736.543	379.557
736.671	375.660
736.799	375.897
736.927	371.474
737.055	372.598
737.183	369.330
737.312	365.588
737.440	359.835
737.568	361.103
737.696	365.938
737.824	362.711
737.952	361.433
738.080	363.660
738.208	357.041
738.337	353.010
738.465	354.773
738.593	350.918
738.721	352.423
738.849	348.773
738.977	344.474
739.105	344.412
739.233	345.062
739.362	345.577
739.490	341.330
739.618	337.722
739.746	339.309
739.874	339.423
740.002	341.340
740.130	335.845
740.258	335.041
740.387	337.247
740.515	333.598
740.643	329.938
740.771	330.742
740.899	326.814
741.027	324.577
741.155	326.918
741.283	325.588
741.412	324.948
741.540	325.814
741.668	319.144
741.796	321.753
741.924	318.258
742.052	316.557
742.180	313.299
742.308	312.320
742.437	315.680
742.565	312.309
742.693	313.856
742.821	310.495
742.949	305.340
743.077	307.072
743.205	307.660
743.333	303.268
743.462	302.351
743.590	298.938
743.718	298.309
743.846	298.763
743.974	293.010
744.102	298.247
744.230	292.474
744.358	289.330
744.487	295.031
744.615	289.010
744.743	292.794
744.871	288.969
744.999	283.814
745.127	287.887
745.255	280.763
745.383	277.155
745.512	278.845
745.640	278.722
745.768	280.021
745.896	276.392
746.024	274.103
746.152	276.773
746.280	273.206
746.408	274.505
746.537	269.557
746.665	273.278
746.793	267.897
746.921	269.588
747.049	262.206
747.177	266.814
747.305	260.649
747.433	261.247
747.562	259.918
747.690	256.258
747.818	255.948
747.946	258.165
748.074	254.639
748.202	257.773
748.330	252.124
748.458	251.361
748.587	250.938
748.715	251.000
748.843	248.052
748.971	248.000
749.099	247.093
749.227	244.196
749.355	244.454
749.483	250.454
749.612	241.464
749.740	240.948
749.868	237.495
749.996	237.546
750.124	239.423
750.252	236.041
750.380	235.082
750.508	233.330
750.637	235.113
750.765	235.567
750.893	228.959
751.021	232.309
751.149	230.732
751.277	233.979
751.405	229.062
751.533	227.021
751.662	229.557
751.790	226.938
751.918	226.485
752.046	225.093
752.174	222.814
752.302	225.031
752.430	223.433
752.558	222.742
752.687	224.072
752.815	222.299
752.943	218.753
753.071	216.175
753.199	217.412
753.327	214.113
753.455	213.670
753.583	209.134
753.712	212.381
753.840	209.062
753.968	213.845
754.096	206.423
754.224	209.619
754.352	208.351
754.480	207.979
754.608	209.588
754.737	206.454
754.865	206.155
754.993	205.454
755.121	201.938
755.249	201.876
755.377	198.866
755.505	199.619
755.633	198.464
755.762	196.990
755.890	199.701
756.018	198.165
756.146	196.186
756.274	195.660
756.402	196.546
756.530	192.062
756.658	198.567
756.787	194.814
756.915	190.660
757.043	189.464
757.171	192.887
757.299	188.155
757.427	188.010
757.555	186.660
757.683	187.474
757.812	188.485
757.940	186.959
758.068	183.711
758.196	186.371
758.324	186.474
758.452	183.361
758.580	182.309
758.708	188.124
758.837	182.010
758.965	181.804
759.093	176.474
759.221	181.392
759.349	176.784
759.477	179.959
759.605	177.113
759.733	179.907
759.862	177.588
759.990	174.041
760.118	172.928
760.246	173.124
760.374	171.938
760.502	171.567
760.630	169.979
760.758	169.546
760.887	168.680
761.015	166.742
761.143	168.887
761.271	170.794
761.399	164.680
761.527	169.742
761.655	167.340
761.783	166.402
761.912	167.598
762.040	162.701
762.168	165.010
762.296	161.577
762.424	165.278
762.552	163.887
762.680	159.897
762.808	161.072
762.937	161.196
763.065	159.454
763.193	163.588
763.321	156.567
763.449	158.959
763.577	155.361
763.705	156.247
763.833	161.536
763.962	154.155
764.090	154.907
764.218	154.155
764.346	154.711
764.474	154.402
764.602	154.732
764.730	155.340
764.858	152.701
764.987	152.361
765.115	153.722
765.243	153.804
765.371	154.072
765.499	148.155
765.627	150.144
765.755	149.165
765.883	147.598
766.012	149.897
766.140	149.485
766.268	148.742
766.396	148.155
766.524	147.526
766.652	147.052
766.780	147.402
766.908	144.670
767.037	148.619
767.165	145.072
767.293	146.876
767.421	147.361
767.549	143.433
767.677	147.052
767.805	146.639
767.933	141.309
768.062	144.361
768.190	142.814
768.318	145.021
768.446	144.309
768.574	142.649
768.702	146.959
768.830	144.278
768.958	142.814
769.087	143.948
769.215	142.732
769.343	139.938
769.471	141.010
769.599	143.567
769.727	141.567
769.855	140.464
769.983	139.454
770.112	140.443
770.240	139.784
770.368	139.546
770.496	142.237
770.624	138.495
770.752	142.598
770.880	140.206
771.008	137.732
771.137	139.835
771.265	136.876
771.393	139.041
771.521	138.412
771.649	138.557
771.777	136.258
771.905	140.186
772.033	139.175
772.162	139.835
772.290	135.660
772.418	137.753
772.546	137.979
772.674	139.598
772.802	136.897
772.930	133.835
773.058	134.670
773.187	134.866
773.315	136.423
773.443	135.278
773.571	134.557
773.699	133.175
773.827	133.227
773.955	136.753
774.083	134.330
774.212	136.598
774.340	135.268
774.468	132.144
774.596	132.474
774.724	135.660
774.852	134.165
774.980	135.381
775.108	132.887
775.237	130.340
775.365	131.031
775.493	132.649
775.621	131.247
775.749	131.093
775.877	131.495
776.005	130.670
776.133	131.660
776.262	131.608
776.390	129.825
776.518	131.629
776.646	131.175
776.774	127.969
776.902	129.732
777.030	130.134
777.158	128.804
777.287	129.598
777.415	131.031
777.543	126.866
777.671	130.247
777.799	128.175
777.927	131.948
778.055	126.639
778.183	130.763
778.312	128.206
778.440	127.619
778.568	127.247
778.696	128.423
778.824	128.990
778.952	128.072
779.080	126.381
779.208	126.082
779.337	125.608
779.465	127.773
779.593	126.835
779.721	127.474
779.849	126.845
779.977	127.010
780.105	126.021
780.233	125.505
780.362	124.186
780.490	124.485
780.618	124.474
780.746	125.320
780.874	123.423
781.002	124.371
781.130	124.629
781.258	121.598
781.387	125.289
781.515	124.969
781.643	123.588
781.771	124.814
781.899	122.784
782.027	123.526
782.155	120.794
782.283	121.670
782.412	119.897
782.540	124.093
782.668	122.959
782.796	123.082
782.924	121.299
783.052	121.041
783.180	121.567
783.308	121.948
783.437	121.268
783.565	121.124
783.693	120.320
783.821	122.701
783.949	120.247
784.077	118.701
784.205	121.093
784.333	122.196
784.462	122.062
784.590	123.062
784.718	119.155
784.846	119.196
784.974	119.588
785.102	119.876
785.230	120.227
785.358	118.381
785.487	118.124
785.615	117.361
785.743	118.598
785.871	117.237
785.999	117.247
786.127	119.773
786.255	118.629
786.383	116.680
786.512	117.938
786.640	117.433
786.768	118.340
786.896	115.062
787.024	116.825
787.152	115.072
787.280	116.495
787.408	118.784
787.537	116.711
787.665	118.165
787.793	115.381
787.921	116.237
788.049	115.268
788.177	116.113
788.305	115.742
788.433	116.062
788.562	114.567
788.690	115.165
788.818	114.577
788.946	114.237
789.074	113.969
789.202	114.887
789.330	114.423
789.458	114.784
789.587	115.175
789.715	113.278
789.843	112.753
789.971	113.423
790.099	115.423
790.227	111.412
790.355	111.412
790.483	112.258
790.612	113.330
790.740	113.835
790.868	114.206
790.996	113.918
791.124	114.041
791.252	112.495
791.380	111.784
791.508	110.959
791.637	113.722
791.765	112.082
791.893	110.485
792.021	113.052
792.149	112.000
792.277	113.237
792.405	113.247
792.533	112.247
792.662	110.814
792.790	112.010
792.918	111.598
793.046	110.680
793.174	111.227
793.302	111.237
793.430	112.577
793.558	111.629
793.687	112.165
793.815	111.392
793.943	110.010
794.071	110.206
794.199	110.918
794.327	110.753
794.455	111.691
794.583	109.124
794.712	110.701
794.840	107.732
794.968	108.247
795.096	108.979
795.224	109.124
795.352	109.196
795.480	108.660
795.608	109.990
795.737	109.454
795.865	108.825
795.993	108.505
796.121	109.680
796.249	109.402
796.377	107.979
796.505	109.216
796.633	110.588
796.762	107.701
796.890	110.639
797.018	109.278
797.146	108.340
797.274	108.186
797.402	107.093
797.530	108.887
797.658	108.825
797.787	110.010
797.915	108.763
798.043	108.814
798.171	108.722
798.299	107.443
798.427	107.794
798.555	106.175
798.683	107.742
798.812	107.258
798.940	107.948
799.068	106.330
799.196	106.938
799.324	107.227
799.452	105.990
799.580	105.804
799.708	108.619
799.837	107.010
799.965	106.227
800.093	106.175
800.221	107.608
800.349	107.773
800.477	107.701
800.605	106.485
800.733	107.423
800.862	106.918
800.990	107.113
801.118	107.526
801.246	104.732
801.374	105.835
801.502	106.443
801.630	106.392
801.758	106.216
801.887	105.000
802.015	105.402
802.143	105.175
802.271	106.639
802.399	107.351
802.527	105.856
802.655	105.753
802.783	104.433
802.912	105.742
803.040	104.794
803.168	103.979
803.296	105.804
803.424	104.876
803.552	104.474
803.680	104.093
803.808	104.165
803.937	104.670
804.065	106.175
804.193	104.371
804.321	104.206
804.449	104.773
804.577	104.258
804.705	104.577
804.833	104.299
804.962	104.186
805.090	104.216
805.218	104.227
805.346	104.340
805.474	104.979
805.602	105.814
805.730	104.351
805.858	104.825
805.987	103.196
806.115	104.082
806.243	103.845
806.371	103.557
806.499	103.371
806.627	103.742
806.755	103.711
806.883	103.660
807.012	102.567
807.140	103.876
807.268	103.649
807.396	104.876
807.524	104.124
807.652	103.773
807.780	103.742
807.908	104.041
808.037	103.546
808.165	104.062
808.293	103.897
808.421	103.670
808.549	102.876
808.677	101.082
808.805	103.268
808.933	103.299
809.062	102.588
809.190	102.536
809.318	102.680
809.446	103.990
809.574	103.031
809.702	102.753
809.830	103.196
809.958	101.546
810.087	100.979
810.215	103.062
810.343	103.588
810.471	103.258
810.599	101.990
810.727	105.093
810.855	102.990
810.983	103.814
811.112	103.804
811.240	102.021
811.368	101.082
811.496	103.691
811.624	103.175
811.752	102.928
811.880	102.474
812.008	102.093
812.137	103.021
812.265	101.351
812.393	101.588
812.521	100.794
812.649	101.093
812.777	101.330
812.905	102.155
813.033	101.103
813.162	101.072
813.290	102.887
813.418	102.124
813.546	102.711
813.674	102.062
813.802	99.856
813.930	100.186
814.058	102.278
814.187	101.732
814.315	102.072
814.443	102.227
814.571	100.278
814.699	101.320
814.827	101.918
814.955	101.289
815.083	101.557
815.212	101.959
815.340	101.258
815.468	100.753
815.596	100.598
815.724	101.402
815.852	101.206
815.980	101.113
816.108	100.711
816.237	99.763
816.365	101.392
816.493	100.825
816.621	100.649
816.749	102.433
816.877	100.464
817.005	100.423
817.133	102.629
817.262	101.299
817.390	101.680
817.518	101.062
817.646	100.567
817.774	100.948
817.902	101.247
818.030	101.835
818.158	102.423
818.287	101.196
818.415	100.227
818.543	99.990
818.671	100.227
818.799	101.082
818.927	99.588
819.055	101.309
819.183	102.072
819.312	101.485
819.440	101.165
819.568	100.660
819.696	100.948
819.824	100.814
819.952	99.876
820.080	99.309
820.208	100.103
820.337	100.897
820.465	100.340
820.593	100.021
820.721	100.928
820.849	99.495
820.977	100.351
821.105	100.515
821.233	99.825
821.362	100.526
821.490	100.093
821.618	101.010
821.746	100.278
821.874	99.134
822.002	99.186
822.130	99.639
822.258	101.010
822.387	99.062
822.515	99.247
822.643	98.856
822.771	98.969
822.899	100.144
823.027	99.753
823.155	98.557
823.283	99.557
823.412	101.155
823.540	100.825
823.668	100.268
823.796	98.897
823.924	100.897
824.052	99.742
824.180	98.866
824.308	100.526
824.437	99.794
824.565	99.412
824.693	100.495
824.821	100.021
824.949	100.196
825.077	99.691
825.205	98.299
825.333	98.505
825.462	98.948
825.590	99.196
825.718	98.794
825.846	99.309
825.974	99.381
826.102	99.598
826.230	99.546
826.358	100.289
826.487	99.340
826.615	97.639
826.743	99.072
826.871	99.649
826.999	100.742
827.127	100.227
827.255	99.557
827.383	98.485
827.512	98.423
827.640	100.175
827.768	99.856
827.896	98.330
828.024	98.825
828.152	98.670
828.280	99.990
828.408	99.206
828.537	99.165
828.665	98.443
828.793	98.505
828.921	98.897
829.049	98.825
829.177	98.186
829.305	100.031
829.433	98.330
829.562	97.897
829.690	100.794
829.818	98.536
829.946	99.144
830.074	98.856
830.202	99.289
830.330	98.082
830.458	100.155
830.587	99.072
830.715	98.670
830.843	99.021
830.971	99.670
831.099	97.474
831.227	99.330
831.355	98.639
831.483	100.577
831.612	100.124
831.740	100.196
831.868	99.660
831.996	99.206
832.124	100.649
832.252	97.876
832.380	98.093
832.508	99.536
832.637	98.711
832.765	98.907
832.893	98.856
833.021	98.361
833.149	97.732
833.277	99.680
833.405	99.093
833.533	98.670
833.662	99.402
833.790	98.340
833.918	98.526
834.046	98.763
834.174	100.175
834.302	99.216
834.430	98.144
834.558	98.753
834.687	98.557
834.815	98.608
834.943	98.299
835.071	97.351
835.199	98.722
835.327	98.918
835.455	97.670
835.583	98.959
835.712	98.268
835.840	98.392
835.968	97.804
836.096	98.619
836.224	98.320
836.352	99.515
836.480	98.629
836.608	98.897
836.737	100.340
836.865	98.897
836.993	97.371
837.121	99.515
837.249	98.536
837.377	98.680
837.505	97.691
837.633	98.948
837.762	97.887
837.890	98.247
838.018	97.784
838.146	98.268
838.274	97.330
838.402	98.753
838.530	98.433
838.658	97.794
838.787	97.887
838.915	98.897
839.043	99.175
839.171	99.351
839.299	98.969
839.427	97.598
839.555	99.680
839.683	99.773
839.812	99.474
839.940	99.196
840.068	99.660
840.196	98.948
840.324	98.928
840.452	99.258
840.580	98.186
840.708	98.464
840.837	97.825
840.965	98.814
841.093	98.753
841.221	99.485
841.349	100.546
841.477	99.433
841.605	97.732
841.733	98.608
841.862	99.680
841.990	98.763
842.118	98.639
842.246	97.474
842.374	98.175
842.502	99.216
842.630	97.990
842.758	98.299
842.887	98.990
843.015	97.969
843.143	98.144
843.271	98.402
843.399	98.062
843.527	98.103
843.655	98.711
843.783	98.784
843.912	98.309
844.040	99.722
844.168	99.515
844.296	99.639
844.424	99.536
844.552	99.639
844.680	98.526
844.808	99.660
844.937	98.093
845.065	98.237
845.193	98.577
845.321	97.536
845.449	98.443
845.577	98.289
845.705	98.196
845.833	99.577
845.962	99.134
846.090	97.876
846.218	97.825
846.346	99.320
846.474	97.381
846.602	98.340
846.730	98.897
846.858	97.619
846.987	96.938
847.115	99.897
847.243	98.825
847.371	98.753
847.499	97.701
847.627	99.062
847.755	97.072
847.883	96.804
848.012	98.629
848.140	97.412
848.268	98.175
848.396	97.134
848.524	99.711
848.652	99.216
848.780	97.577
848.908	100.495
849.037	99.031
849.165	100.041
849.293	98.876
849.421	99.660
849.549	99.660
849.677	97.299
849.805	98.629
849.933	99.247
850.062	99.474
850.190	98.546
850.318	97.835
850.446	98.464
850.574	96.701
850.702	98.124
850.830	97.845
850.958	98.485
851.087	98.948
851.215	98.371
851.343	97.680
851.471	97.546
851.599	98.258
851.727	98.443
851.855	98.495
851.983	97.495
852.112	96.887
852.240	97.897
852.368	98.361
852.496	98.031
852.624	98.680
852.752	97.825
852.880	98.742
853.008	98.670
853.137	98.320
853.265	98.608
853.393	98.732
853.521	98.361
853.649	99.608
853.777	97.784
853.905	98.134
854.033	97.237
854.162	97.979
854.290	96.918
854.418	96.258
854.546	95.784
854.674	98.196
854.802	96.959
854.930	97.763
855.058	97.608
855.187	98.289
855.315	97.845
855.443	99.268
855.571	98.990
855.699	97.928
855.827	97.526
855.955	98.134
856.083	98.299
856.212	98.588
856.340	98.608
856.468	99.072
856.596	97.866
856.724	98.402
856.852	98.454
856.980	98.598
857.108	98.113
857.237	98.660
857.365	97.773
857.493	98.763
857.621	97.938
857.749	97.536
857.877	97.433
858.005	99.124
858.133	96.691
858.262	98.577
858.390	99.268
858.518	97.309
858.646	97.093
858.774	98.990
858.902	98.402
859.030	97.959
859.158	97.948
859.287	97.351
859.415	96.948
859.543	97.062
859.671	98.381
859.799	98.237
859.927	98.629
860.055	98.010
860.183	98.969
860.312	98.134
860.440	97.835
860.568	98.990
860.696	98.402
860.824	98.866
860.952	98.392
861.080	98.660
861.208	99.052
861.337	97.835
861.465	98.258
861.593	98.113
861.721	98.773
861.849	96.825
861.977	97.247
862.105	98.825
862.233	97.835
862.362	98.804
862.490	98.515
862.618	99.134
862.746	99.608
862.874	100.278
863.002	98.938
863.130	98.897
863.258	99.474
863.387	98.722
863.515	98.474
863.643	97.495
863.771	98.938
863.899	98.959
864.027	99.144
864.155	98.186
864.283	97.113
864.412	98.928
864.540	99.608
864.668	96.866
864.796	99.278
864.924	99.268
865.052	98.876
865.180	100.237
865.308	98.485
865.437	97.670
865.565	98.577
865.693	98.639
865.821	98.907
865.949	98.649
866.077	99.021
866.205	97.268
866.333	97.320
866.462	97.825
866.590	98.670
866.718	99.021
866.846	99.392
866.974	99.320
867.102	96.691
867.230	97.093
867.358	98.031
867.487	99.175
867.615	98.753
867.743	98.526
867.871	99.330
867.999	100.052
868.127	98.062
868.255	99.515
868.383	99.206
868.512	99.866
868.640	99.443
868.768	99.732
868.896	98.392
869.024	98.969
869.152	97.959
869.280	99.546
869.408	99.835
869.537	99.155
869.665	98.557
869.793	99.835
869.921	98.082
870.049	99.856
870.177	99.381
870.305	99.907
870.433	100.072
870.562	98.289
870.690	99.371
870.818	100.031
870.946	99.948
871.074	98.856
871.202	98.278
871.330	99.938
871.458	99.670
871.587	99.392
871.715	97.711
871.843	99.546
871.971	98.845
872.099	97.330
872.227	98.464
872.355	98.093
872.483	97.804
872.612	100.577
872.740	97.887
872.868	99.062
872.996	97.433
873.124	98.928
873.252	99.691
873.380	98.608
873.508	99.031
873.637	98.124
873.765	98.093
873.893	99.021
874.021	100.237
874.149	99.990
874.277	99.680
874.405	99.629
874.533	99.959
874.662	97.814
874.790	98.454
874.918	99.082
875.046	98.588
875.174	98.557
875.302	99.299
875.430	98.773
875.558	98.515
875.687	98.258
875.815	98.845
875.943	99.557
876.071	98.856
876.199	100.639
876.327	98.381
876.455	99.691
876.583	98.474
876.712	98.876
876.840	97.082
876.968	98.969
877.096	99.433
877.224	100.258
877.352	98.732
877.480	99.206
877.608	99.144
877.737	98.072
877.865	98.124
877.993	97.619
878.121	99.763
878.249	100.320
878.377	99.371
878.505	98.330
878.633	99.268
878.762	99.216
878.890	99.175
879.018	99.340
879.146	99.299
879.274	99.361
879.402	100.742
879.530	98.392
879.658	99.938
879.787	98.093
879.915	98.454
880.043	99.371
880.171	98.567
880.299	98.784
880.427	99.639
880.555	99.093
880.683	99.000
880.812	99.186
880.940	97.258
881.068	99.113
881.196	98.608
881.324	99.598
881.452	98.443
881.580	98.546
881.708	99.082
881.837	100.351
881.965	98.124
882.093	98.732
882.221	98.412
882.349	98.804
882.477	99.134
882.605	99.990
882.733	99.392
882.862	100.227
882.990	98.309
883.118	100.381
883.246	100.330
883.374	99.598
883.502	98.784
883.630	100.237
883.758	100.619
883.887	99.041
884.015	99.515
884.143	99.969
884.271	99.608
884.399	99.289
884.527	100.103
884.655	99.289
884.783	100.381
884.912	99.701
885.040	98.485
885.168	98.515
885.296	98.680
885.424	99.165
885.552	99.320
885.680	98.711
885.808	99.969
885.937	100.856
886.065	99.794
886.193	99.113
886.321	100.062
886.449	99.928
886.577	100.206
886.705	99.155
886.833	98.794
886.962	100.629
887.090	98.928
887.218	98.948
887.346	98.031
887.474	100.093
887.602	100.588
887.730	98.856
887.858	98.629
887.987	100.082
888.115	98.464
888.243	101.278
888.371	100.247
888.499	101.412
888.627	99.247
888.755	99.247
888.883	100.495
889.012	99.588
889.140	99.165
889.268	98.577
889.396	99.000
889.524	99.763
889.652	99.722
889.780	99.144
889.908	99.732
890.037	100.897
890.165	98.629
890.293	99.536
890.421	98.897
890.549	99.567
890.677	98.619
890.805	99.732
890.933	98.546
891.062	99.443
891.190	99.784
891.318	100.794
891.446	100.268
891.574	100.062
891.702	98.608
891.830	99.227
891.958	99.990
892.087	101.041
892.215	100.629
892.343	101.175
892.471	100.196
892.599	99.784
892.727	100.474
892.855	99.361
892.983	100.536
893.112	100.629
893.240	99.763
893.368	99.567
893.496	101.546
893.624	100.010
893.752	99.753
893.880	98.732
894.008	100.412
894.137	99.557
894.265	100.701
894.393	100.557
894.521	98.918
894.649	99.938
894.777	99.227
894.905	99.186
895.033	101.485
895.162	100.649
895.290	99.454
895.418	100.948
895.546	100.887
895.674	99.124
895.802	99.320
895.930	99.165
896.058	99.021
896.187	100.598
896.315	101.866
896.443	99.814
896.571	101.113
896.699	100.907
896.827	100.206
896.955	99.742
897.083	99.907
897.212	100.691
897.340	99.371
897.468	99.990
897.596	99.536
897.724	98.732
897.852	99.794
897.980	99.649
898.108	98.990
898.237	99.443
898.365	99.649
898.493	100.196
898.621	100.340
898.749	99.794
898.877	100.258
899.005	99.814
899.133	99.753
899.262	99.784
899.390	99.320
899.518	99.660
899.646	99.907
899.774	100.773
899.902	100.649
900.030	99.866
900.158	100.103
900.287	100.165
900.415	99.928
900.543	100.515
900.671	101.526
900.799	99.454
900.927	100.485
901.055	98.433
901.183	99.557
901.312	100.423
901.440	100.814
901.568	100.938
901.696	100.680
901.824	97.443
901.952	100.629
902.080	98.897
902.208	99.474
902.337	100.485
902.465	99.155
902.593	102.052
902.721	102.010
902.849	100.216
902.977	100.392
903.105	101.093
903.233	100.381
903.362	101.175
903.490	99.825
903.618	99.093
903.746	99.278
903.874	101.000
904.002	101.608
904.130	100.825
904.258	99.309
904.387	100.227
904.515	99.722
904.643	100.907
904.771	101.979
904.899	101.515
905.027	99.742
905.155	98.887
905.283	100.052
905.412	100.423
905.540	99.371
905.668	98.928
905.796	98.299
905.924	101.010
906.052	100.278
906.180	100.742
906.308	98.598
906.437	98.546
906.565	100.784
906.693	100.557
906.821	98.866
906.949	99.361
907.077	99.619
907.205	100.299
907.333	100.485
907.462	101.237
907.590	100.814
907.718	100.557
907.846	100.866
907.974	101.206
908.102	100.835
908.230	100.021
908.358	99.515
908.487	99.443
908.615	100.722
908.743	101.361
908.871	101.897
908.999	99.753
909.127	100.577
909.255	98.454
909.383	98.536
909.512	101.629
909.640	100.948
909.768	100.773
909.896	100.443
910.024	100.505
910.152	101.134
910.280	100.454
910.408	100.711
910.537	101.711
910.665	100.907
910.793	102.103
910.921	100.784
911.049	99.443
911.177	99.278
911.305	100.711
911.433	101.598
911.562	100.454
911.690	100.876
911.818	100.464
911.946	102.649
912.074	101.505
912.202	99.711
912.330	100.278
912.458	102.082
912.587	100.969
912.715	100.474
912.843	101.062
912.971	101.134
913.099	102.165
913.227	101.289
913.355	101.639
913.483	100.701
913.612	100.990
913.740	100.691
913.868	101.619
