sample12u_at_750.00nm_cut_at_1060.50Y_01.dat
19.06.2023
11:18:25
cut middle at Y: 1060.50
top cursor: 1109 down cursor: 1012 mean of: 97 lines , 2560 datapoints
wavelength(nm)	intensity[arb. units]
585.996	1879.825
586.124	1832.588
586.252	1813.474
586.380	1816.794
586.508	1814.495
586.637	1825.959
586.765	1825.485
586.893	1823.680
587.021	1837.268
587.149	1831.866
587.277	1825.557
587.405	1858.361
587.533	1834.041
587.662	1848.392
587.790	1848.959
587.918	1842.124
588.046	1841.897
588.174	1843.948
588.302	1846.619
588.430	1846.155
588.558	1855.722
588.687	1856.423
588.815	1873.588
588.943	1878.835
589.071	1854.629
589.199	1865.629
589.327	1864.649
589.455	1845.495
589.583	1863.711
589.712	1872.505
589.840	1871.794
589.968	1871.660
590.096	1858.608
590.224	1872.814
590.352	1875.155
590.480	1877.144
590.608	1882.629
590.737	1862.536
590.865	1884.515
590.993	1874.897
591.121	1877.247
591.249	1891.423
591.377	1881.093
591.505	1884.371
591.633	1880.041
591.762	1892.732
591.890	1899.186
592.018	1886.041
592.146	1894.680
592.274	1899.144
592.402	1897.361
592.530	1893.876
592.658	1899.227
592.787	1902.165
592.915	1912.711
593.043	1904.134
593.171	1897.742
593.299	1917.948
593.427	1913.000
593.555	1926.825
593.683	1915.196
593.812	1910.113
593.940	1923.474
594.068	1918.052
594.196	1943.021
594.324	1932.021
594.452	1957.918
594.580	1950.753
594.708	1963.835
594.837	1953.021
594.965	1964.763
595.093	1971.237
595.221	1969.660
595.349	1969.639
595.477	1974.763
595.605	1979.000
595.733	2019.649
595.862	1980.278
595.990	1981.701
596.118	2001.629
596.246	2002.289
596.374	2003.711
596.502	2007.299
596.630	2008.402
596.758	2022.722
596.887	2017.392
597.015	2012.474
597.143	1995.041
597.271	2021.144
597.399	2010.041
597.527	2017.598
597.655	2013.299
597.783	2022.351
597.912	2028.887
598.040	2030.443
598.168	2028.845
598.296	2018.320
598.424	2010.567
598.552	2027.423
598.680	2010.577
598.808	2015.969
598.937	2033.979
599.065	2025.856
599.193	2011.835
599.321	1998.557
599.449	2020.474
599.577	2012.474
599.705	2026.515
599.833	2020.794
599.962	2024.289
600.090	2023.701
600.218	2028.278
600.346	2037.876
600.474	2027.103
600.602	2038.299
600.730	2029.866
600.858	2042.948
600.987	2029.959
601.115	2030.608
601.243	2022.649
601.371	2046.320
601.499	2053.268
601.627	2046.928
601.755	2054.340
601.883	2046.124
602.012	2073.938
602.140	2061.835
602.268	2073.701
602.396	2080.825
602.524	2074.175
602.652	2081.423
602.780	2095.258
602.908	2091.082
603.037	2106.804
603.165	2103.515
603.293	2122.320
603.421	2110.227
603.549	2119.289
603.677	2134.330
603.805	2119.454
603.933	2144.155
604.062	2142.557
604.190	2163.206
604.318	2155.608
604.446	2184.639
604.574	2168.381
604.702	2173.412
604.830	2187.474
604.958	2201.701
605.087	2226.052
605.215	2211.454
605.343	2216.670
605.471	2224.794
605.599	2241.247
605.727	2226.052
605.855	2240.052
605.983	2220.155
606.112	2253.021
606.240	2254.196
606.368	2256.495
606.496	2282.216
606.624	2258.588
606.752	2257.567
606.880	2281.990
607.008	2303.876
607.137	2296.258
607.265	2266.732
607.393	2287.485
607.521	2304.340
607.649	2268.536
607.777	2278.330
607.905	2280.381
608.033	2290.845
608.162	2267.598
608.290	2291.856
608.418	2298.464
608.546	2289.144
608.674	2306.711
608.802	2287.938
608.930	2299.959
609.058	2287.454
609.187	2287.608
609.315	2299.144
609.443	2297.979
609.571	2291.876
609.699	2273.072
609.827	2280.887
609.955	2290.598
610.083	2270.454
610.212	2268.536
610.340	2295.804
610.468	2312.907
610.596	2286.784
610.724	2277.258
610.852	2297.711
610.980	2302.443
611.108	2303.175
611.237	2295.505
611.365	2301.742
611.493	2301.577
611.621	2307.536
611.749	2325.567
611.877	2326.608
612.005	2320.557
612.133	2314.340
612.262	2322.124
612.390	2334.124
612.518	2338.454
612.646	2359.711
612.774	2344.918
612.902	2349.763
613.030	2352.134
613.158	2379.773
613.287	2367.784
613.415	2356.443
613.543	2362.031
613.671	2377.330
613.799	2375.546
613.927	2405.206
614.055	2394.577
614.183	2446.278
614.312	2385.732
614.440	2429.093
614.568	2404.227
614.696	2411.247
614.824	2478.938
614.952	2446.155
615.080	2436.660
615.208	2444.031
615.337	2444.186
615.465	2455.423
615.593	2466.165
615.721	2466.598
615.849	2468.691
615.977	2472.268
616.105	2497.835
616.233	2464.010
616.362	2499.340
616.490	2481.237
616.618	2494.330
616.746	2510.773
616.874	2525.598
617.002	2511.423
617.130	2515.412
617.258	2548.103
617.387	2521.474
617.515	2484.763
617.643	2500.412
617.771	2509.742
617.899	2531.505
618.027	2503.052
618.155	2546.433
618.283	2515.052
618.412	2529.938
618.540	2547.577
618.668	2549.433
618.796	2518.897
618.924	2576.711
619.052	2533.598
619.180	2531.082
619.308	2536.309
619.437	2533.742
619.565	2555.433
619.693	2524.423
619.821	2549.299
619.949	2538.258
620.077	2573.784
620.205	2576.928
620.333	2572.031
620.462	2567.598
620.590	2593.608
620.718	2573.433
620.846	2594.835
620.974	2613.206
621.102	2585.866
621.230	2584.557
621.358	2640.608
621.487	2572.031
621.615	2604.392
621.743	2593.237
621.871	2591.309
621.999	2615.649
622.127	2612.361
622.255	2592.330
622.383	2603.000
622.512	2609.216
622.640	2668.897
622.768	2594.845
622.896	2606.495
623.024	2587.649
623.152	2661.196
623.280	2626.093
623.408	2599.258
623.537	2618.093
623.665	2607.979
623.793	2640.577
623.921	2616.175
624.049	2623.330
624.177	2626.649
624.305	2629.278
624.433	2628.196
624.562	2622.247
624.690	2623.196
624.818	2649.206
624.946	2719.144
625.074	2644.722
625.202	2620.938
625.330	2609.979
625.458	2651.041
625.587	2632.340
625.715	2657.289
625.843	2706.010
625.971	2651.536
626.099	2649.794
626.227	2642.577
626.355	2632.979
626.483	2695.340
626.612	2656.763
626.740	2646.186
626.868	2680.825
626.996	2643.330
627.124	2659.680
627.252	2641.052
627.380	2677.309
627.508	2649.433
627.637	2652.082
627.765	2680.124
627.893	2672.206
628.021	2656.031
628.149	2682.515
628.277	2685.103
628.405	2722.474
628.533	2659.309
628.662	2703.619
628.790	2689.052
628.918	2690.608
629.046	2701.093
629.174	2702.021
629.302	2761.227
629.430	2688.495
629.558	2723.010
629.687	2735.299
629.815	2715.381
629.943	2739.691
630.071	2747.227
630.199	2742.546
630.327	2750.701
630.455	2731.330
630.583	2784.371
630.712	2769.371
630.840	2754.835
630.968	2782.474
631.096	2766.268
631.224	2762.680
631.352	2764.567
631.480	2788.165
631.608	2803.814
631.737	2854.515
631.865	2938.835
631.993	2791.392
632.121	2874.588
632.249	2858.577
632.377	2838.309
632.505	2844.340
632.633	2785.381
632.762	2847.010
632.890	2886.247
633.018	2801.763
633.146	2808.763
633.274	2837.959
633.402	2839.124
633.530	2806.948
633.658	2901.093
633.787	2803.825
633.915	2865.866
634.043	2821.072
634.171	2809.227
634.299	2853.619
634.427	2895.031
634.555	2899.134
634.683	2849.237
634.812	2832.412
634.940	2854.825
635.068	2803.608
635.196	2841.866
635.324	2845.258
635.452	2883.959
635.580	2841.938
635.708	2813.928
635.837	2879.588
635.965	2830.454
636.093	2823.505
636.221	2829.443
636.349	2863.711
636.477	2782.423
636.605	2958.340
636.733	2792.165
636.862	2782.938
636.990	2824.268
637.118	2861.103
637.246	2824.021
637.374	2841.928
637.502	2807.093
637.630	2787.722
637.758	2822.340
637.887	2786.825
638.015	2824.959
638.143	2804.928
638.271	2796.649
638.399	2804.371
638.527	2795.010
638.655	2776.763
638.783	2891.165
638.912	2836.474
639.040	2814.433
639.168	2827.309
639.296	2799.010
639.424	2931.206
639.552	2798.691
639.680	2805.639
639.808	2828.876
639.937	2792.784
640.065	2793.433
640.193	2864.959
640.321	2800.309
640.449	2876.742
640.577	2865.052
640.705	2803.619
640.833	2901.474
640.962	2841.165
641.090	2811.021
641.218	2794.031
641.346	2834.309
641.474	2828.186
641.602	2818.031
641.730	2818.299
641.858	2824.907
641.987	2868.299
642.115	2857.268
642.243	2863.134
642.371	2885.268
642.499	2871.072
642.627	2866.546
642.755	2893.845
642.883	2920.649
643.012	2858.258
643.140	2859.423
643.268	2872.804
643.396	2872.948
643.524	2986.175
643.652	2907.330
643.780	2888.402
643.908	2880.216
644.037	2989.454
644.165	2892.268
644.293	2957.175
644.421	2872.536
644.549	2967.948
644.677	2941.887
644.805	2961.649
644.933	2904.423
645.062	2912.113
645.190	2987.186
645.318	3022.969
645.446	2931.567
645.574	2945.340
645.702	2942.361
645.830	3058.237
645.958	2940.093
646.087	3056.505
646.215	2928.773
646.343	3078.732
646.471	3045.216
646.599	2991.701
646.727	2946.577
646.855	2950.918
646.983	2979.021
647.112	2971.113
647.240	3093.536
647.368	2976.021
647.496	3000.959
647.624	2940.464
647.752	2943.835
647.880	2952.928
648.008	2958.155
648.137	2967.402
648.265	2926.897
648.393	2979.196
648.521	2953.619
648.649	3006.835
648.777	2988.278
648.905	2953.258
649.033	2994.093
649.162	2977.402
649.290	2947.670
649.418	2975.670
649.546	3029.289
649.674	2983.268
649.802	2975.351
649.930	3068.124
650.058	2901.062
650.187	2976.144
650.315	2914.784
650.443	2987.165
650.571	2944.784
650.699	2933.918
650.827	2924.052
650.955	2958.237
651.083	2979.103
651.212	2978.670
651.340	3030.701
651.468	2965.619
651.596	2968.804
651.724	2958.948
651.852	2945.031
651.980	2923.753
652.108	3009.113
652.237	2960.134
652.365	3000.381
652.493	2937.237
652.621	2939.897
652.749	3006.361
652.877	2937.670
653.005	2986.289
653.133	2916.577
653.262	2967.536
653.390	2917.309
653.518	3089.278
653.646	2944.041
653.774	3073.866
653.902	2994.485
654.030	2934.175
654.158	2931.722
654.287	2939.876
654.415	2966.990
654.543	2940.866
654.671	2981.876
654.799	2934.433
654.927	2905.412
655.055	2913.134
655.183	2943.598
655.312	2928.887
655.440	2939.340
655.568	2913.278
655.696	3018.691
655.824	3022.227
655.952	2947.165
656.080	2913.268
656.208	3047.804
656.337	2957.557
656.465	3015.227
656.593	3005.515
656.721	2984.464
656.849	3035.701
656.977	2922.629
657.105	2935.701
657.233	2929.206
657.362	2961.082
657.490	2943.773
657.618	2953.031
657.746	2946.381
657.874	2942.113
658.002	2891.907
658.130	2933.330
658.258	2936.845
658.387	2912.371
658.515	2916.928
658.643	2950.309
658.771	2950.897
658.899	2919.454
659.027	2921.907
659.155	2922.990
659.283	3039.990
659.412	2928.608
659.540	3002.505
659.668	2925.237
659.796	2960.835
659.924	2971.381
660.052	2948.062
660.180	2927.175
660.308	2948.247
660.437	2942.309
660.565	2917.320
660.693	2908.165
660.821	2967.320
660.949	2911.691
661.077	2925.825
661.205	2969.443
661.333	2900.804
661.462	2970.186
661.590	2981.557
661.718	3060.371
661.846	3008.237
661.974	3043.619
662.102	2959.485
662.230	2982.289
662.358	2935.557
662.487	2956.588
662.615	2924.443
662.743	2950.268
662.871	2933.959
662.999	2910.495
663.127	2926.103
663.255	3021.763
663.383	3060.062
663.512	2930.474
663.640	2969.175
663.768	2962.134
663.896	2929.969
664.024	3000.557
664.152	2945.072
664.280	3004.361
664.408	2977.041
664.537	2984.340
664.665	2928.454
664.793	2921.825
664.921	2933.330
665.049	2980.454
665.177	2955.351
665.305	2978.639
665.433	2962.320
665.562	2996.938
665.690	2977.887
665.818	3156.454
665.946	2967.258
666.074	2975.639
666.202	2960.814
666.330	3014.969
666.458	2978.392
666.587	2929.134
666.715	2978.381
666.843	2952.433
666.971	2960.505
667.099	2991.835
667.227	3020.629
667.355	3020.412
667.483	2965.113
667.612	2990.464
667.740	3021.082
667.868	3044.010
667.996	2982.412
668.124	2984.433
668.252	3018.165
668.380	2980.825
668.508	2994.041
668.637	3003.856
668.765	2993.124
668.893	3044.299
669.021	2955.546
669.149	3060.835
669.277	3013.629
669.405	3022.887
669.533	3019.649
669.662	3153.351
669.790	3001.515
669.918	3058.155
670.046	3048.845
670.174	3057.876
670.302	3022.072
670.430	2989.619
670.558	3060.794
670.687	3027.546
670.815	3088.763
670.943	2974.763
671.071	2953.082
671.199	3000.495
671.327	2937.557
671.455	2994.165
671.583	2970.320
671.712	3081.062
671.840	2979.629
671.968	2999.381
672.096	3019.990
672.224	2932.206
672.352	3064.155
672.480	2936.052
672.608	2947.433
672.737	2924.103
672.865	3022.753
672.993	2933.196
673.121	2902.165
673.249	2931.144
673.377	2863.340
673.505	2893.289
673.633	2926.495
673.762	2864.113
673.890	2884.794
674.018	3033.278
674.146	2893.660
674.274	2884.876
674.402	3039.423
674.530	2857.309
674.658	2882.969
674.787	2860.639
674.915	2900.835
675.043	2889.041
675.171	2901.093
675.299	2845.887
675.427	2853.392
675.555	2837.124
675.683	2839.639
675.812	2863.206
675.940	2822.289
676.068	2845.928
676.196	2808.247
676.324	2825.443
676.452	2827.794
676.580	2790.897
676.708	2827.969
676.837	2859.247
676.965	2810.216
677.093	2852.907
677.221	2796.485
677.349	2818.608
677.477	2872.392
677.605	2796.835
677.733	2826.732
677.862	2782.742
677.990	2758.021
678.118	2806.794
678.246	2787.423
678.374	2791.649
678.502	2751.845
678.630	2722.804
678.758	2726.402
678.887	2818.742
679.015	2736.237
679.143	2729.381
679.271	2727.423
679.399	2761.619
679.527	2748.227
679.655	2761.536
679.783	2735.454
679.912	2720.330
680.040	2773.639
680.168	2751.474
680.296	2734.959
680.424	2706.227
680.552	2729.113
680.680	2754.557
680.808	2701.784
680.937	2685.897
681.065	2722.299
681.193	2713.515
681.321	2711.711
681.449	2696.247
681.577	2683.845
681.705	2702.588
681.833	2704.907
681.962	2684.567
682.090	2807.577
682.218	2690.969
682.346	2697.237
682.474	2695.289
682.602	2679.196
682.730	2701.619
682.858	2680.608
682.987	2698.619
683.115	2681.887
683.243	2690.423
683.371	2664.072
683.499	2672.031
683.627	2707.938
683.755	2711.299
683.883	2778.216
684.012	2678.546
684.140	2673.887
684.268	2662.216
684.396	2693.052
684.524	2652.588
684.652	2725.969
684.780	2705.320
684.908	2717.990
685.037	2668.464
685.165	2642.969
685.293	2705.979
685.421	2716.340
685.549	2655.526
685.677	2669.474
685.805	2748.907
685.933	2696.722
686.062	2664.856
686.190	2643.464
686.318	2708.598
686.446	2657.856
686.574	2630.144
686.702	2744.464
686.830	2648.897
686.958	2672.732
687.087	2654.474
687.215	2665.495
687.343	2647.629
687.471	2685.340
687.599	2649.000
687.727	2712.165
687.855	2639.454
687.983	2651.649
688.112	2686.845
688.240	2614.897
688.368	2621.175
688.496	2649.278
688.624	2655.866
688.752	2629.959
688.880	2605.526
689.008	2618.000
689.137	2605.918
689.265	2592.227
689.393	2595.206
689.521	2591.443
689.649	2600.825
689.777	2586.330
689.905	2588.454
690.033	2575.000
690.162	2564.041
690.290	2576.804
690.418	2555.237
690.546	2559.928
690.674	2602.062
690.802	2555.608
690.930	2543.381
691.058	2546.505
691.187	2533.526
691.315	2540.474
691.443	2547.381
691.571	2513.144
691.699	2506.052
691.827	2521.474
691.955	2495.072
692.083	2501.124
692.212	2504.990
692.340	2489.361
692.468	2483.412
692.596	2491.907
692.724	2498.969
692.852	2468.134
692.980	2462.959
693.108	2453.804
693.237	2448.216
693.365	2437.773
693.493	2431.454
693.621	2426.320
693.749	2438.732
693.877	2412.567
694.005	2410.515
694.133	2430.866
694.262	2394.505
694.390	2399.443
694.518	2394.247
694.646	2376.629
694.774	2379.289
694.902	2375.536
695.030	2398.361
695.158	2363.639
695.287	2370.804
695.415	2351.907
695.543	2342.515
695.671	2329.093
695.799	2330.165
695.927	2329.021
696.055	2323.773
696.183	2345.196
696.312	2330.773
696.440	2305.979
696.568	2312.258
696.696	2275.381
696.824	2288.990
696.952	2293.247
697.080	2272.876
697.208	2293.588
697.337	2260.567
697.465	2262.454
697.593	2267.381
697.721	2261.464
697.849	2248.536
697.977	2256.907
698.105	2253.990
698.233	2248.340
698.362	2232.082
698.490	2233.763
698.618	2234.082
698.746	2210.103
698.874	2229.505
699.002	2218.876
699.130	2218.381
699.258	2195.186
699.387	2184.155
699.515	2187.000
699.643	2189.763
699.771	2181.299
699.899	2171.103
700.027	2163.515
700.155	2170.763
700.283	2148.340
700.412	2127.753
700.540	2140.907
700.668	2124.495
700.796	2118.443
700.924	2104.402
701.052	2105.320
701.180	2102.423
701.308	2106.227
701.437	2081.804
701.565	2088.753
701.693	2085.474
701.821	2079.742
701.949	2052.649
702.077	2041.433
702.205	2053.320
702.333	2041.144
702.462	2035.814
702.590	2034.629
702.718	2031.670
702.846	2022.835
702.974	2012.216
703.102	2004.526
703.230	1999.113
703.358	1969.474
703.487	1970.897
703.615	1978.784
703.743	1931.990
703.871	1941.196
703.999	1935.433
704.127	1932.701
704.255	1930.309
704.383	1916.979
704.512	1906.887
704.640	1904.835
704.768	1875.474
704.896	1883.526
705.024	1872.175
705.152	1853.567
705.280	1872.907
705.408	1841.299
705.537	1851.763
705.665	1843.412
705.793	1841.340
705.921	1835.845
706.049	1827.113
706.177	1801.670
706.305	1809.392
706.433	1798.990
706.562	1794.000
706.690	1778.505
706.818	1773.402
706.946	1772.309
707.074	1763.351
707.202	1744.804
707.330	1739.763
707.458	1738.175
707.587	1736.938
707.715	1729.536
707.843	1706.938
707.971	1729.165
708.099	1695.454
708.227	1695.010
708.355	1693.794
708.483	1693.010
708.612	1689.825
708.740	1682.392
708.868	1675.186
708.996	1656.794
709.124	1654.773
709.252	1647.660
709.380	1635.021
709.508	1639.165
709.637	1626.918
709.765	1622.990
709.893	1604.835
710.021	1617.186
710.149	1613.320
710.277	1608.680
710.405	1604.268
710.533	1582.258
710.662	1581.629
710.790	1591.361
710.918	1564.536
711.046	1571.268
711.174	1577.969
711.302	1552.062
711.430	1556.485
711.558	1561.588
711.687	1546.495
711.815	1550.021
711.943	1539.216
712.071	1544.247
712.199	1533.639
712.327	1512.144
712.455	1527.670
712.583	1524.309
712.712	1512.763
712.840	1510.928
712.968	1493.247
713.096	1498.165
713.224	1492.691
713.352	1489.134
713.480	1464.660
713.608	1462.082
713.737	1470.134
713.865	1466.773
713.993	1458.753
714.121	1456.237
714.249	1440.918
714.377	1451.443
714.505	1459.515
714.633	1436.309
714.762	1427.814
714.890	1436.113
715.018	1416.526
715.146	1419.371
715.274	1403.165
715.402	1407.041
715.530	1408.021
715.658	1390.021
715.787	1390.825
715.915	1391.969
716.043	1388.639
716.171	1384.052
716.299	1379.474
716.427	1375.196
716.555	1359.134
716.683	1360.124
716.812	1360.979
716.940	1356.794
717.068	1340.443
717.196	1348.443
717.324	1340.186
717.452	1332.629
717.580	1327.773
717.708	1327.794
717.837	1310.567
717.965	1309.588
718.093	1304.701
718.221	1291.227
718.349	1294.959
718.477	1288.216
718.605	1265.103
718.733	1275.866
718.862	1264.835
718.990	1264.309
719.118	1264.887
719.246	1255.289
719.374	1258.742
719.502	1260.041
719.630	1241.443
719.758	1241.258
719.887	1238.629
720.015	1229.485
720.143	1226.588
720.271	1214.443
720.399	1209.825
720.527	1212.144
720.655	1201.701
720.783	1188.711
720.912	1185.804
721.040	1191.505
721.168	1194.557
721.296	1171.299
721.424	1163.835
721.552	1161.155
721.680	1159.423
721.808	1150.928
721.937	1144.041
722.065	1137.216
722.193	1129.742
722.321	1138.443
722.449	1131.268
722.577	1120.206
722.705	1120.515
722.833	1102.742
722.962	1098.526
723.090	1093.536
723.218	1074.567
723.346	1075.237
723.474	1080.979
723.602	1065.948
723.730	1063.103
723.858	1055.134
723.987	1063.742
724.115	1041.443
724.243	1050.691
724.371	1050.340
724.499	1033.278
724.627	1037.093
724.755	1028.113
724.883	1022.979
725.012	1008.701
725.140	1013.093
725.268	1011.649
725.396	995.814
725.524	987.557
725.652	989.794
725.780	987.691
725.908	975.959
726.037	982.495
726.165	968.619
726.293	967.959
726.421	954.680
726.549	963.742
726.677	959.639
726.805	955.897
726.933	951.320
727.062	931.753
727.190	920.082
727.318	931.814
727.446	921.155
727.574	929.010
727.702	913.608
727.830	913.742
727.958	915.423
728.087	901.732
728.215	894.876
728.343	894.619
728.471	893.433
728.599	882.794
728.727	880.103
728.855	888.918
728.983	865.175
729.112	870.526
729.240	860.794
729.368	859.186
729.496	859.990
729.624	848.856
729.752	845.206
729.880	840.536
730.008	842.990
730.137	834.082
730.265	833.835
730.393	826.340
730.521	831.577
730.649	811.010
730.777	823.433
730.905	810.619
731.033	805.866
731.162	810.887
731.290	801.340
731.418	804.412
731.546	795.670
731.674	781.835
731.802	793.629
731.930	792.629
732.058	778.289
732.187	771.948
732.315	777.938
732.443	779.979
732.571	767.948
732.699	767.907
732.827	768.237
732.955	758.753
733.083	755.371
733.212	756.959
733.340	758.536
733.468	751.381
733.596	749.763
733.724	737.608
733.852	729.845
733.980	732.351
734.108	734.577
734.237	734.072
734.365	716.866
734.493	718.454
734.621	726.082
734.749	725.557
734.877	713.340
735.005	719.856
735.133	710.619
735.262	713.515
735.390	703.010
735.518	699.897
735.646	692.959
735.774	692.423
735.902	691.237
736.030	692.526
736.158	688.351
736.287	687.887
736.415	684.443
736.543	677.010
736.671	667.526
736.799	664.392
736.927	660.567
737.055	672.660
737.183	667.990
737.312	656.474
737.440	650.485
737.568	657.639
737.696	658.907
737.824	651.000
737.952	648.639
738.080	645.237
738.208	637.010
738.337	628.299
738.465	634.567
738.593	622.268
738.721	628.227
738.849	628.701
738.977	622.691
739.105	624.474
739.233	613.670
739.362	616.845
739.490	611.361
739.618	608.680
739.746	607.969
739.874	606.959
740.002	602.330
740.130	586.979
740.258	600.784
740.387	598.495
740.515	594.495
740.643	587.454
740.771	579.175
740.899	574.113
741.027	575.907
741.155	577.649
741.283	566.680
741.412	573.887
741.540	574.536
741.668	558.959
741.796	566.330
741.924	567.258
742.052	554.804
742.180	558.608
742.308	552.361
742.437	548.701
742.565	548.454
742.693	541.784
742.821	540.979
742.949	539.938
743.077	535.845
743.205	537.701
743.333	535.021
743.462	527.794
743.590	524.433
743.718	520.165
743.846	517.763
743.974	521.474
744.102	511.660
744.230	516.474
744.358	510.526
744.487	506.660
744.615	508.639
744.743	506.938
744.871	502.938
744.999	498.577
745.127	496.680
745.255	487.536
745.383	491.598
745.512	493.938
745.640	491.866
745.768	486.639
745.896	481.959
746.024	480.124
746.152	476.423
746.280	477.814
746.408	473.423
746.537	476.412
746.665	472.577
746.793	460.299
746.921	461.567
747.049	469.433
747.177	460.309
747.305	453.691
747.433	452.237
747.562	452.732
747.690	450.103
747.818	448.629
747.946	451.371
748.074	444.454
748.202	444.938
748.330	434.258
748.458	441.835
748.587	436.320
748.715	432.577
748.843	435.763
748.971	430.010
749.099	433.474
749.227	427.753
749.355	427.536
749.483	423.052
749.612	420.649
749.740	418.443
749.868	416.639
749.996	413.247
750.124	410.196
750.252	412.082
750.380	416.515
750.508	413.082
750.637	406.639
750.765	410.907
750.893	403.124
751.021	401.526
751.149	404.887
751.277	395.340
751.405	399.711
751.533	398.103
751.662	397.278
751.790	390.732
751.918	392.629
752.046	391.402
752.174	391.856
752.302	386.608
752.430	387.464
752.558	384.505
752.687	378.237
752.815	376.948
752.943	373.258
753.071	374.897
753.199	371.845
753.327	370.113
753.455	368.381
753.583	363.268
753.712	362.268
753.840	364.041
753.968	366.423
754.096	359.495
754.224	361.990
754.352	358.804
754.480	359.515
754.608	354.340
754.737	350.845
754.865	352.845
754.993	351.309
755.121	350.649
755.249	347.165
755.377	340.814
755.505	345.680
755.633	348.196
755.762	339.784
755.890	338.258
756.018	334.072
756.146	331.598
756.274	333.649
756.402	330.041
756.530	331.474
756.658	332.918
756.787	325.268
756.915	323.443
757.043	320.701
757.171	325.474
757.299	319.526
757.427	315.474
757.555	318.887
757.683	318.186
757.812	314.680
757.940	313.010
758.068	316.474
758.196	311.320
758.324	306.144
758.452	305.680
758.580	301.619
758.708	312.216
758.837	304.598
758.965	301.474
759.093	299.299
759.221	296.309
759.349	299.732
759.477	292.619
759.605	294.505
759.733	297.990
759.862	293.351
759.990	287.227
760.118	290.629
760.246	286.948
760.374	288.052
760.502	284.021
760.630	283.392
760.758	279.742
760.887	273.732
761.015	274.351
761.143	277.433
761.271	273.206
761.399	273.546
761.527	271.082
761.655	273.010
761.783	271.206
761.912	269.485
762.040	267.289
762.168	267.443
762.296	260.845
762.424	262.856
762.552	259.103
762.680	260.753
762.808	257.010
762.937	259.876
763.065	258.041
763.193	254.680
763.321	249.443
763.449	251.165
763.577	249.423
763.705	250.402
763.833	251.990
763.962	246.134
764.090	245.742
764.218	242.639
764.346	240.402
764.474	244.433
764.602	241.835
764.730	240.711
764.858	244.598
764.987	240.814
765.115	234.412
765.243	242.887
765.371	238.237
765.499	232.371
765.627	238.196
765.755	232.361
765.883	226.701
766.012	229.041
766.140	229.155
766.268	233.113
766.396	224.722
766.524	228.753
766.652	227.608
766.780	221.649
766.908	222.649
767.037	227.577
767.165	224.371
767.293	227.680
767.421	225.784
767.549	218.680
767.677	221.082
767.805	220.557
767.933	219.897
768.062	220.103
768.190	218.495
768.318	216.567
768.446	217.082
768.574	218.814
768.702	218.268
768.830	215.330
768.958	213.670
769.087	212.835
769.215	216.165
769.343	209.907
769.471	213.082
769.599	215.351
769.727	210.887
769.855	208.186
769.983	207.598
770.112	208.577
770.240	208.464
770.368	206.237
770.496	207.629
770.624	209.309
770.752	208.670
770.880	203.691
771.008	200.804
771.137	203.784
771.265	203.340
771.393	203.000
771.521	202.608
771.649	200.629
771.777	201.608
771.905	203.062
772.033	200.918
772.162	201.722
772.290	198.567
772.418	199.546
772.546	200.691
772.674	199.402
772.802	196.495
772.930	196.216
773.058	194.402
773.187	195.948
773.315	196.856
773.443	193.649
773.571	191.381
773.699	194.433
773.827	190.381
773.955	191.928
774.083	193.371
774.212	188.485
774.340	191.134
774.468	188.206
774.596	190.299
774.724	189.680
774.852	189.505
774.980	189.155
775.108	187.289
775.237	186.753
775.365	185.392
775.493	185.876
775.621	183.557
775.749	184.165
775.877	185.918
776.005	183.742
776.133	186.557
776.262	182.629
776.390	181.773
776.518	179.278
776.646	183.155
776.774	180.804
776.902	182.340
777.030	180.309
777.158	181.062
777.287	179.990
777.415	175.649
777.543	177.155
777.671	176.247
777.799	176.443
777.927	177.732
778.055	175.763
778.183	176.670
778.312	175.979
778.440	171.732
778.568	170.464
778.696	174.557
778.824	175.825
778.952	175.608
779.080	169.753
779.208	171.588
779.337	169.990
779.465	170.722
779.593	171.691
779.721	168.680
779.849	170.546
779.977	168.763
780.105	170.959
780.233	170.186
780.362	165.392
780.490	165.536
780.618	167.845
780.746	169.423
780.874	164.598
781.002	164.948
781.130	167.320
781.258	164.124
781.387	168.660
781.515	162.433
781.643	165.062
781.771	162.825
781.899	163.433
782.027	162.722
782.155	162.175
782.283	160.567
782.412	160.299
782.540	162.216
782.668	160.866
782.796	160.330
782.924	162.289
783.052	158.804
783.180	157.021
783.308	158.557
783.437	159.113
783.565	158.237
783.693	157.660
783.821	159.227
783.949	157.216
784.077	157.103
784.205	156.216
784.333	158.577
784.462	153.216
784.590	159.247
784.718	152.588
784.846	153.320
784.974	153.464
785.102	156.402
785.230	155.546
785.358	153.784
785.487	152.588
785.615	154.454
785.743	153.340
785.871	149.000
785.999	154.041
786.127	153.010
786.255	150.351
786.383	149.969
786.512	150.856
786.640	148.186
786.768	151.041
786.896	150.206
787.024	150.072
787.152	146.742
787.280	149.320
787.408	151.010
787.537	148.732
787.665	149.165
787.793	144.619
787.921	147.639
788.049	150.072
788.177	147.175
788.305	146.814
788.433	144.845
788.562	144.237
788.690	146.546
788.818	144.753
788.946	145.155
789.074	140.753
789.202	144.567
789.330	143.093
789.458	144.866
789.587	144.649
789.715	141.402
789.843	142.577
789.971	142.330
790.099	141.691
790.227	141.175
790.355	140.196
790.483	141.361
790.612	140.454
790.740	143.010
790.868	141.526
790.996	142.969
791.124	141.814
791.252	139.227
791.380	139.763
791.508	138.309
791.637	141.845
791.765	140.082
791.893	136.825
792.021	141.557
792.149	136.660
792.277	137.320
792.405	140.918
792.533	138.959
792.662	138.402
792.790	140.443
792.918	139.340
793.046	132.680
793.174	134.866
793.302	136.649
793.430	135.175
793.558	137.299
793.687	135.196
793.815	135.134
793.943	134.495
794.071	133.010
794.199	132.113
794.327	132.268
794.455	132.289
794.583	134.515
794.712	133.814
794.840	130.526
794.968	133.320
795.096	133.268
795.224	131.289
795.352	130.536
795.480	129.794
795.608	132.567
795.737	132.753
795.865	133.082
795.993	129.804
796.121	131.773
796.249	130.629
796.377	130.680
796.505	129.351
796.633	131.423
796.762	129.258
796.890	133.021
797.018	129.814
797.146	129.866
797.274	125.722
797.402	129.062
797.530	129.041
797.658	127.546
797.787	129.381
797.915	128.742
798.043	127.814
798.171	128.196
798.299	127.247
798.427	125.856
798.555	125.814
798.683	124.639
798.812	126.443
798.940	125.938
799.068	126.186
799.196	125.773
799.324	124.897
799.452	124.309
799.580	124.495
799.708	127.680
799.837	126.216
799.965	122.753
800.093	122.856
800.221	126.835
800.349	125.227
800.477	121.753
800.605	121.515
800.733	124.856
800.862	124.268
800.990	125.443
801.118	123.371
801.246	119.670
801.374	122.526
801.502	122.660
801.630	121.361
801.758	120.320
801.887	118.433
802.015	119.928
802.143	120.701
802.271	121.134
802.399	121.515
802.527	118.907
802.655	121.144
802.783	121.165
802.912	120.165
803.040	120.454
803.168	118.691
803.296	120.113
803.424	119.536
803.552	118.144
803.680	118.557
803.808	119.454
803.937	119.392
804.065	116.990
804.193	116.165
804.321	117.000
804.449	116.918
804.577	118.495
804.705	117.526
804.833	114.526
804.962	116.041
805.090	116.680
805.218	117.000
805.346	117.216
805.474	117.196
805.602	120.351
805.730	115.237
805.858	115.794
805.987	115.021
806.115	116.990
806.243	115.299
806.371	115.691
806.499	116.289
806.627	115.309
806.755	117.093
806.883	115.887
807.012	115.155
807.140	114.371
807.268	114.196
807.396	115.814
807.524	114.928
807.652	115.052
807.780	115.134
807.908	112.588
808.037	113.206
808.165	114.959
808.293	113.381
808.421	112.206
808.549	114.289
808.677	114.557
808.805	113.237
808.933	113.371
809.062	113.062
809.190	112.938
809.318	113.454
809.446	113.804
809.574	112.608
809.702	112.443
809.830	112.876
809.958	110.175
810.087	112.289
810.215	113.536
810.343	113.876
810.471	113.660
810.599	112.433
810.727	114.082
810.855	111.753
810.983	112.536
811.112	113.196
811.240	111.474
811.368	111.443
811.496	112.577
811.624	113.351
811.752	111.299
811.880	111.526
812.008	111.144
812.137	110.763
812.265	111.113
812.393	111.278
812.521	110.371
812.649	110.691
812.777	110.866
812.905	111.670
813.033	109.691
813.162	109.505
813.290	110.258
813.418	109.072
813.546	110.969
813.674	109.918
813.802	108.907
813.930	110.876
814.058	109.320
814.187	109.845
814.315	110.608
814.443	111.546
814.571	108.722
814.699	109.835
814.827	110.216
814.955	108.660
815.083	108.670
815.212	109.227
815.340	109.289
815.468	108.639
815.596	108.835
815.724	108.928
815.852	108.536
815.980	108.423
816.108	108.443
816.237	108.412
816.365	106.897
816.493	107.402
816.621	108.649
816.749	109.454
816.877	107.680
817.005	109.227
817.133	108.649
817.262	108.247
817.390	108.866
817.518	107.722
817.646	106.577
817.774	108.546
817.902	108.351
818.030	107.216
818.158	108.495
818.287	107.134
818.415	107.907
818.543	106.557
818.671	107.320
818.799	108.258
818.927	108.196
819.055	107.268
819.183	107.742
819.312	108.258
819.440	108.113
819.568	106.660
819.696	108.701
819.824	107.371
819.952	106.299
820.080	105.918
820.208	106.113
820.337	108.196
820.465	108.072
820.593	106.371
820.721	106.454
820.849	105.691
820.977	106.124
821.105	107.134
821.233	106.072
821.362	105.608
821.490	105.031
821.618	106.680
821.746	105.423
821.874	104.969
822.002	106.258
822.130	105.784
822.258	105.845
822.387	104.918
822.515	105.722
822.643	105.454
822.771	104.206
822.899	104.165
823.027	105.546
823.155	104.010
823.283	104.268
823.412	106.021
823.540	104.732
823.668	105.113
823.796	105.268
823.924	105.423
824.052	103.763
824.180	103.608
824.308	105.485
824.437	104.948
824.565	104.309
824.693	105.464
824.821	105.412
824.949	103.856
825.077	103.608
825.205	102.680
825.333	104.000
825.462	103.680
825.590	103.124
825.718	102.237
825.846	103.309
825.974	103.784
826.102	103.876
826.230	103.577
826.358	103.948
826.487	103.340
826.615	102.330
826.743	103.948
826.871	104.732
826.999	105.299
827.127	104.608
827.255	102.722
827.383	103.320
827.512	104.814
827.640	104.928
827.768	105.536
827.896	104.495
828.024	102.536
828.152	103.608
828.280	104.845
828.408	105.845
828.537	103.351
828.665	102.247
828.793	103.990
828.921	104.144
829.049	104.351
829.177	102.464
829.305	104.371
829.433	102.845
829.562	101.711
829.690	102.546
829.818	102.464
829.946	102.649
830.074	101.175
830.202	102.773
830.330	101.722
830.458	102.433
830.587	103.515
830.715	102.134
830.843	102.093
830.971	101.330
831.099	102.443
831.227	102.000
831.355	101.835
831.483	103.423
831.612	103.351
831.740	103.928
831.868	103.206
831.996	102.268
832.124	103.753
832.252	101.897
832.380	102.753
832.508	101.443
832.637	102.227
832.765	103.124
832.893	102.216
833.021	102.948
833.149	101.938
833.277	102.124
833.405	102.938
833.533	102.062
833.662	103.165
833.790	101.206
833.918	102.907
834.046	102.701
834.174	102.649
834.302	102.825
834.430	101.763
834.558	101.402
834.687	102.907
834.815	102.031
834.943	100.526
835.071	101.474
835.199	100.639
835.327	102.237
835.455	100.464
835.583	103.289
835.712	101.237
835.840	101.619
835.968	100.186
836.096	102.515
836.224	103.216
836.352	102.701
836.480	102.186
836.608	101.072
836.737	101.505
836.865	101.031
836.993	100.711
837.121	103.361
837.249	102.680
837.377	102.021
837.505	100.856
837.633	101.371
837.762	101.443
837.890	100.000
838.018	99.938
838.146	100.701
838.274	101.309
838.402	102.134
838.530	101.423
838.658	101.660
838.787	100.619
838.915	100.948
839.043	101.237
839.171	101.340
839.299	102.794
839.427	101.381
839.555	101.979
839.683	102.969
839.812	102.021
839.940	100.732
840.068	101.371
840.196	101.505
840.324	102.155
840.452	101.691
840.580	101.041
840.708	101.330
840.837	101.082
840.965	102.433
841.093	102.897
841.221	101.711
841.349	102.052
841.477	101.557
841.605	101.454
841.733	100.907
841.862	103.000
841.990	101.691
842.118	101.536
842.246	100.433
842.374	101.227
842.502	101.010
842.630	101.835
842.758	102.062
842.887	99.753
843.015	99.990
843.143	100.330
843.271	100.227
843.399	100.361
843.527	100.907
843.655	99.969
843.783	100.052
843.912	101.186
844.040	102.144
844.168	103.124
844.296	101.979
844.424	101.412
844.552	101.258
844.680	100.206
844.808	101.814
844.937	101.866
845.065	101.536
845.193	101.103
845.321	100.722
845.449	101.082
845.577	101.072
845.705	101.649
845.833	103.299
845.962	101.505
846.090	100.041
846.218	100.247
846.346	100.928
846.474	99.402
846.602	100.258
846.730	101.216
846.858	100.443
846.987	100.495
847.115	101.505
847.243	101.546
847.371	101.588
847.499	99.412
847.627	100.835
847.755	100.515
847.883	100.309
848.012	100.340
848.140	101.155
848.268	100.103
848.396	99.680
848.524	100.784
848.652	101.216
848.780	99.856
848.908	102.124
849.037	101.402
849.165	101.670
849.293	99.546
849.421	99.907
849.549	99.732
849.677	100.196
849.805	101.443
849.933	101.021
850.062	101.062
850.190	99.443
850.318	99.753
850.446	99.990
850.574	99.742
850.702	100.433
850.830	99.443
850.958	99.526
851.087	101.464
851.215	100.299
851.343	99.206
851.471	101.010
851.599	100.237
851.727	99.763
851.855	100.629
851.983	99.371
852.112	100.247
852.240	100.062
852.368	100.773
852.496	99.835
852.624	99.227
852.752	98.856
852.880	100.485
853.008	100.351
853.137	101.268
853.265	99.227
853.393	100.567
853.521	100.072
853.649	100.639
853.777	99.216
853.905	99.753
854.033	99.041
854.162	100.186
854.290	101.031
854.418	98.052
854.546	98.340
854.674	100.124
854.802	98.155
854.930	100.175
855.058	101.175
855.187	100.381
855.315	99.784
855.443	101.165
855.571	100.670
855.699	100.691
855.827	99.536
855.955	99.876
856.083	100.567
856.212	99.742
856.340	101.268
856.468	99.474
856.596	99.639
856.724	100.505
856.852	100.258
856.980	99.753
857.108	99.948
857.237	100.588
857.365	99.515
857.493	99.175
857.621	99.237
857.749	99.309
857.877	98.701
858.005	100.660
858.133	98.010
858.262	98.897
858.390	100.536
858.518	100.433
858.646	98.990
858.774	100.340
858.902	100.485
859.030	99.371
859.158	99.588
859.287	98.825
859.415	99.598
859.543	98.268
859.671	99.990
859.799	100.485
859.927	99.845
860.055	100.000
860.183	99.546
860.312	100.031
860.440	99.206
860.568	100.144
860.696	99.691
860.824	99.629
860.952	99.505
861.080	100.196
861.208	100.278
861.337	99.577
861.465	98.948
861.593	99.990
861.721	100.608
861.849	100.062
861.977	99.144
862.105	99.144
862.233	99.505
862.362	100.041
862.490	99.866
862.618	100.763
862.746	100.351
862.874	101.464
863.002	99.515
863.130	99.021
863.258	100.165
863.387	100.268
863.515	99.773
863.643	99.237
863.771	101.031
863.899	100.052
864.027	101.773
864.155	100.433
864.283	99.392
864.412	99.608
864.540	100.175
864.668	98.897
864.796	100.918
864.924	99.598
865.052	100.392
865.180	100.969
865.308	101.041
865.437	99.340
865.565	99.856
865.693	98.557
865.821	99.381
865.949	100.948
866.077	101.278
866.205	99.948
866.333	99.526
866.462	98.175
866.590	99.227
866.718	99.216
866.846	100.804
866.974	100.227
867.102	99.289
867.230	99.216
867.358	98.969
867.487	99.948
867.615	99.351
867.743	100.680
867.871	100.351
867.999	100.423
868.127	100.258
868.255	100.979
868.383	100.299
868.512	101.567
868.640	100.474
868.768	101.433
868.896	99.103
869.024	99.402
869.152	98.990
869.280	101.371
869.408	101.412
869.537	101.103
869.665	99.268
869.793	101.309
869.921	100.804
870.049	99.773
870.177	100.629
870.305	100.856
870.433	101.866
870.562	100.433
870.690	100.113
870.818	100.000
870.946	101.247
871.074	99.041
871.202	99.175
871.330	100.454
871.458	100.619
871.587	100.247
871.715	99.041
871.843	100.093
871.971	100.763
872.099	98.155
872.227	99.722
872.355	99.495
872.483	99.258
872.612	100.392
872.740	99.237
872.868	99.454
872.996	98.887
873.124	100.691
873.252	100.794
873.380	99.381
873.508	99.639
873.637	100.990
873.765	99.876
873.893	99.660
874.021	100.546
874.149	100.660
874.277	100.309
874.405	100.278
874.533	101.082
874.662	99.000
874.790	99.485
874.918	100.268
875.046	100.082
875.174	99.144
875.302	100.938
875.430	99.454
875.558	99.990
875.687	101.454
875.815	102.763
875.943	100.557
876.071	100.897
876.199	101.134
876.327	100.546
876.455	100.907
876.583	100.093
876.712	100.216
876.840	99.155
876.968	100.289
877.096	101.660
877.224	101.722
877.352	98.320
877.480	99.567
877.608	100.825
877.737	100.278
877.865	98.454
877.993	99.454
878.121	100.546
878.249	101.866
878.377	99.340
878.505	98.990
878.633	101.887
878.762	101.598
878.890	99.711
879.018	99.381
879.146	101.247
879.274	100.660
879.402	101.175
879.530	99.289
879.658	101.041
879.787	99.990
879.915	100.299
880.043	100.186
880.171	98.907
880.299	99.897
880.427	99.433
880.555	99.536
880.683	99.866
880.812	100.546
880.940	99.433
881.068	101.031
881.196	100.278
881.324	100.371
881.452	100.165
881.580	99.392
881.708	99.691
881.837	99.515
881.965	100.237
882.093	100.577
882.221	100.495
882.349	98.680
882.477	100.330
882.605	101.753
882.733	100.773
882.862	101.072
882.990	100.237
883.118	102.526
883.246	100.804
883.374	100.247
883.502	99.670
883.630	102.402
883.758	101.186
883.887	99.979
884.015	101.701
884.143	102.464
884.271	100.773
884.399	100.124
884.527	99.887
884.655	99.856
884.783	101.082
884.912	101.093
885.040	100.309
885.168	99.577
885.296	99.691
885.424	99.979
885.552	101.351
885.680	99.124
885.808	101.031
885.937	101.062
886.065	100.247
886.193	99.753
886.321	100.763
886.449	100.691
886.577	100.928
886.705	101.784
886.833	101.072
886.962	99.897
887.090	100.289
887.218	100.278
887.346	99.443
887.474	99.742
887.602	99.845
887.730	100.072
887.858	99.794
887.987	99.526
888.115	99.639
888.243	100.845
888.371	101.804
888.499	101.557
888.627	100.639
888.755	100.258
888.883	99.557
889.012	100.464
889.140	99.639
889.268	98.701
889.396	100.866
889.524	100.948
889.652	99.495
889.780	100.381
889.908	100.113
890.037	100.299
890.165	98.856
890.293	100.206
890.421	100.082
890.549	100.845
890.677	99.320
890.805	100.948
890.933	99.918
891.062	100.371
891.190	100.124
891.318	101.907
891.446	100.536
891.574	100.577
891.702	99.278
891.830	99.557
891.958	99.722
892.087	100.948
892.215	100.701
892.343	100.691
892.471	100.969
892.599	100.546
892.727	101.175
892.855	101.412
892.983	100.784
893.112	99.763
893.240	100.732
893.368	101.186
893.496	101.608
893.624	99.979
893.752	100.866
893.880	99.144
894.008	99.918
894.137	100.278
894.265	100.887
894.393	101.928
894.521	100.629
894.649	101.381
894.777	100.010
894.905	99.144
895.033	101.361
895.162	101.660
895.290	101.392
895.418	100.990
895.546	102.072
895.674	99.557
895.802	99.289
895.930	100.794
896.058	99.907
896.187	100.433
896.315	101.959
896.443	101.825
896.571	102.134
896.699	101.784
896.827	100.227
896.955	100.660
897.083	100.701
897.212	102.247
897.340	99.753
897.468	99.979
897.596	99.433
897.724	99.845
897.852	100.402
897.980	99.804
898.108	99.753
898.237	100.670
898.365	99.742
898.493	100.299
898.621	100.845
898.749	100.670
898.877	100.186
899.005	100.773
899.133	100.732
899.262	100.856
899.390	99.536
899.518	100.423
899.646	99.825
899.774	100.814
899.902	100.175
900.030	100.928
900.158	100.835
900.287	100.608
900.415	100.289
900.543	100.588
900.671	101.629
900.799	99.948
900.927	99.227
901.055	99.876
901.183	99.258
901.312	100.454
901.440	101.629
901.568	99.856
901.696	100.753
901.824	101.144
901.952	101.763
902.080	101.309
902.208	100.113
902.337	101.124
902.465	101.351
902.593	101.371
902.721	100.856
902.849	100.907
902.977	98.866
903.105	100.526
903.233	100.155
903.362	100.876
903.490	98.227
903.618	99.753
903.746	100.124
903.874	100.175
904.002	101.392
904.130	101.392
904.258	99.093
904.387	101.021
904.515	99.773
904.643	100.113
904.771	101.505
904.899	100.567
905.027	100.495
905.155	99.309
905.283	100.268
905.412	100.093
905.540	101.155
905.668	99.619
905.796	98.701
905.924	100.515
906.052	100.340
906.180	101.113
906.308	99.536
906.437	99.021
906.565	100.062
906.693	100.361
906.821	97.825
906.949	99.299
907.077	100.175
907.205	100.845
907.333	100.093
907.462	102.784
907.590	100.794
907.718	99.814
907.846	99.474
907.974	101.196
908.102	100.918
908.230	99.361
908.358	99.495
908.487	100.227
908.615	100.258
908.743	100.412
908.871	99.876
908.999	99.526
909.127	99.577
909.255	99.495
909.383	99.619
909.512	102.443
909.640	101.918
909.768	100.866
909.896	100.804
910.024	100.701
910.152	100.629
910.280	99.526
910.408	100.825
910.537	102.866
910.665	101.021
910.793	100.144
910.921	100.753
911.049	101.144
911.177	99.402
911.305	100.103
911.433	100.216
911.562	101.041
911.690	100.979
911.818	101.268
911.946	101.474
912.074	100.732
912.202	100.299
912.330	98.711
912.458	100.247
912.587	99.546
912.715	101.536
912.843	101.948
912.971	102.320
913.099	101.082
913.227	100.722
913.355	101.546
913.483	101.155
913.612	100.660
913.740	101.722
913.868	101.216
